# === DATA DESCRIPTION FILE ======================================================
#
# CAUTION - Investigational device.
# Limited by Federal Law to investigational use.
#
# Dataset name: E:\\Export\test_mFFE SENSE 10echo SENSE_14_1
#
# CLINICAL TRYOUT             Research image export tool     V4.2
#
# === GENERAL INFORMATION ========================================================
#
.    Patient name                       :   test
.    Examination name                   :   test
.    Protocol name                      :   mFFE SENSE 10echo SENSE
.    Examination date/time              :   2007.11.07 / 18:41:46
.    Series Type                        :   Image   MRSERIES
.    Acquisition nr                     :   14
.    Reconstruction nr                  :   1
.    Scan Duration [sec]                :   22.4
.    Max. number of cardiac phases      :   1
.    Max. number of echoes              :   10
.    Max. number of slices/locations    :   1
.    Max. number of dynamics            :   1
.    Max. number of mixes               :   1
.    Patient position                   :   Head First Supine
.    Preparation direction              :   Anterior-Posterior
.    Technique                          :   FFE
.    Scan resolution  (x, y)            :   224  224
.    Scan mode                          :   MS
.    Repetition time [ms]               :   48.000  
.    FOV (ap,fh,rl) [mm]                :   360.000  10.000  360.000
.    Water Fat shift [pixels]           :   0.402
.    Angulation midslice(ap,fh,rl)[degr]:   0.000  0.000  0.000
.    Off Centre midslice(ap,fh,rl) [mm] :   -0.117  -40.635  -13.545
.    Flow compensation <0=no 1=yes> ?   :   0
.    Presaturation     <0=no 1=yes> ?   :   0
.    Phase encoding velocity [cm/sec]   :   0.000000  0.000000  0.000000
.    MTC               <0=no 1=yes> ?   :   0
.    SPIR              <0=no 1=yes> ?   :   0
.    EPI factor        <0,1=no EPI>     :   1
.    Dynamic scan      <0=no 1=yes> ?   :   0
.    Diffusion         <0=no 1=yes> ?   :   0
.    Diffusion echo time [ms]           :   0.0000
.    Max. number of diffusion values    :   1
.    Max. number of gradient orients    :   1
.    Number of label types   <0=no ASL> :   0
#
# === PIXEL VALUES =============================================================
#  PV = pixel value in REC file, FP = floating point value, DV = displayed value on console
#  RS = rescale slope,           RI = rescale intercept,    SS = scale slope
#  DV = PV * RS + RI             FP = DV / (RS * SS)
#
# === IMAGE INFORMATION DEFINITION =============================================
#  The rest of this file contains ONE line per image, this line contains the following information:
#
#  slice number                             (integer)
#  echo number                              (integer)
#  dynamic scan number                      (integer)
#  cardiac phase number                     (integer)
#  image_type_mr                            (integer)
#  scanning sequence                        (integer)
#  index in REC file (in images)            (integer)
#  image pixel size (in bits)               (integer)
#  scan percentage                          (integer)
#  recon resolution (x y)                   (2*integer)
#  rescale intercept                        (float)
#  rescale slope                            (float)
#  scale slope                              (float)
#  window center                            (integer)
#  window width                             (integer)
#  image angulation (ap,fh,rl in degrees )  (3*float)
#  image offcentre (ap,fh,rl in mm )        (3*float)
#  slice thickness (in mm )                 (float)
#  slice gap (in mm )                       (float)
#  image_display_orientation                (integer)
#  slice orientation ( TRA/SAG/COR )        (integer)
#  fmri_status_indication                   (integer)
#  image_type_ed_es  (end diast/end syst)   (integer)
#  pixel spacing (x,y) (in mm)              (2*float)
#  echo_time                                (float)
#  dyn_scan_begin_time                      (float)
#  trigger_time                             (float)
#  diffusion_b_factor                       (float)
#  number of averages                       (integer)
#  image_flip_angle (in degrees)            (float)
#  cardiac frequency   (bpm)                (integer)
#  minimum RR-interval (in ms)              (integer)
#  maximum RR-interval (in ms)              (integer)
#  TURBO factor  <0=no turbo>               (integer)
#  Inversion delay (in ms)                  (float)
#  diffusion b value number    (imagekey!)  (integer)
#  gradient orientation number (imagekey!)  (integer)
#  contrast type                            (string)
#  diffusion anisotropy type                (string)
#  diffusion (ap, fh, rl)                   (3*float)
#  label type (ASL)            (imagekey!)  (integer)
#
# === IMAGE INFORMATION ==========================================================
#  sl ec  dyn ph ty    idx pix scan% rec size                (re)scale              window        angulation              offcentre        thick   gap   info      spacing     echo     dtime   ttime    diff  avg  flip    freq   RR-int  turbo delay b grad cont anis         diffusion       L.ty

  1   1    1  1 0 2     0  16   100  256  256     0.00000   2.40513 1.68553e-002  1070  1860   0.00   0.00   0.00   -0.12  -40.64  -13.55 10.000  0.000 0 1 0 2  1.406  1.406   2.30    0.00     0.00    0.00   2   20.00     0    0    0    10   0.0  1   1    7    0   0.000    0.000    0.000  1
  1   2    1  1 0 2     1  16   100  256  256     0.00000   2.40513 1.68553e-002  1090  1894   0.00   0.00   0.00   -0.12  -40.64  -13.55 10.000  0.000 0 1 0 2  1.406  1.406   4.60    0.00     0.00    0.00   2   20.00     0    0    0    10   0.0  1   1    7    0   0.000    0.000    0.000  1
  1   3    1  1 0 2     2  16   100  256  256     0.00000   2.40513 1.68553e-002  1065  1851   0.00   0.00   0.00   -0.12  -40.64  -13.55 10.000  0.000 0 1 0 2  1.406  1.406   6.90    0.00     0.00    0.00   2   20.00     0    0    0    10   0.0  1   1    7    0   0.000    0.000    0.000  1
  1   4    1  1 0 2     3  16   100  256  256     0.00000   2.40513 1.68553e-002  1065  1851   0.00   0.00   0.00   -0.12  -40.64  -13.55 10.000  0.000 0 1 0 2  1.406  1.406   9.20    0.00     0.00    0.00   2   20.00     0    0    0    10   0.0  1   1    7    0   0.000    0.000    0.000  1
  1   5    1  1 0 2     4  16   100  256  256     0.00000   2.40513 1.68553e-002  1041  1811   0.00   0.00   0.00   -0.12  -40.64  -13.55 10.000  0.000 0 1 0 2  1.406  1.406  11.50    0.00     0.00    0.00   2   20.00     0    0    0    10   0.0  1   1    7    0   0.000    0.000    0.000  1
  1   6    1  1 0 2     5  16   100  256  256     0.00000   2.40513 1.68553e-002  1032  1794   0.00   0.00   0.00   -0.12  -40.64  -13.55 10.000  0.000 0 1 0 2  1.406  1.406  13.80    0.00     0.00    0.00   2   20.00     0    0    0    10   0.0  1   1    7    0   0.000    0.000    0.000  1
  1   7    1  1 0 2     6  16   100  256  256     0.00000   2.40513 1.68553e-002  1014  1763   0.00   0.00   0.00   -0.12  -40.64  -13.55 10.000  0.000 0 1 0 2  1.406  1.406  16.10    0.00     0.00    0.00   2   20.00     0    0    0    10   0.0  1   1    7    0   0.000    0.000    0.000  1
  1   8    1  1 0 2     7  16   100  256  256     0.00000   2.40513 1.68553e-002  1002  1742   0.00   0.00   0.00   -0.12  -40.64  -13.55 10.000  0.000 0 1 0 2  1.406  1.406  18.40    0.00     0.00    0.00   2   20.00     0    0    0    10   0.0  1   1    7    0   0.000    0.000    0.000  1
  1   9    1  1 0 2     8  16   100  256  256     0.00000   2.40513 1.68553e-002   978  1699   0.00   0.00   0.00   -0.12  -40.64  -13.55 10.000  0.000 0 1 0 2  1.406  1.406  20.70    0.00     0.00    0.00   2   20.00     0    0    0    10   0.0  1   1    7    0   0.000    0.000    0.000  1
  1  10    1  1 0 2     9  16   100  256  256     0.00000   2.40513 1.68553e-002   974  1693   0.00   0.00   0.00   -0.12  -40.64  -13.55 10.000  0.000 0 1 0 2  1.406  1.406  23.00    0.00     0.00    0.00   2   20.00     0    0    0    10   0.0  1   1    7    0   0.000    0.000    0.000  1
  1   1    1  1 1 2    10  16   100  256  256 -4924.00000   2.40488 1.68553e-002   408  1943   0.00   0.00   0.00   -0.12  -40.64  -13.55 10.000  0.000 0 1 0 2  1.406  1.406   2.30    0.00     0.00    0.00   2   20.00     0    0    0    10   0.0  1   1    7    0   0.000    0.000    0.000  1
  1   2    1  1 1 2    11  16   100  256  256 -4924.00000   2.40488 1.68553e-002   173  2355   0.00   0.00   0.00   -0.12  -40.64  -13.55 10.000  0.000 0 1 0 2  1.406  1.406   4.60    0.00     0.00    0.00   2   20.00     0    0    0    10   0.0  1   1    7    0   0.000    0.000    0.000  1
  1   3    1  1 1 2    12  16   100  256  256 -4924.00000   2.40488 1.68553e-002   339  2252   0.00   0.00   0.00   -0.12  -40.64  -13.55 10.000  0.000 0 1 0 2  1.406  1.406   6.90    0.00     0.00    0.00   2   20.00     0    0    0    10   0.0  1   1    7    0   0.000    0.000    0.000  1
  1   4    1  1 1 2    13  16   100  256  256 -4924.00000   2.40488 1.68553e-002   287  2891   0.00   0.00   0.00   -0.12  -40.64  -13.55 10.000  0.000 0 1 0 2  1.406  1.406   9.20    0.00     0.00    0.00   2   20.00     0    0    0    10   0.0  1   1    7    0   0.000    0.000    0.000  1
  1   5    1  1 1 2    14  16   100  256  256 -4924.00000   2.40488 1.68553e-002   363  2749   0.00   0.00   0.00   -0.12  -40.64  -13.55 10.000  0.000 0 1 0 2  1.406  1.406  11.50    0.00     0.00    0.00   2   20.00     0    0    0    10   0.0  1   1    7    0   0.000    0.000    0.000  1
  1   6    1  1 1 2    15  16   100  256  256 -4924.00000   2.40488 1.68553e-002   333  2660   0.00   0.00   0.00   -0.12  -40.64  -13.55 10.000  0.000 0 1 0 2  1.406  1.406  13.80    0.00     0.00    0.00   2   20.00     0    0    0    10   0.0  1   1    7    0   0.000    0.000    0.000  1
  1   7    1  1 1 2    16  16   100  256  256 -4924.00000   2.40488 1.68553e-002   283  2589   0.00   0.00   0.00   -0.12  -40.64  -13.55 10.000  0.000 0 1 0 2  1.406  1.406  16.10    0.00     0.00    0.00   2   20.00     0    0    0    10   0.0  1   1    7    0   0.000    0.000    0.000  1
  1   8    1  1 1 2    17  16   100  256  256 -4924.00000   2.40488 1.68553e-002   183  2114   0.00   0.00   0.00   -0.12  -40.64  -13.55 10.000  0.000 0 1 0 2  1.406  1.406  18.40    0.00     0.00    0.00   2   20.00     0    0    0    10   0.0  1   1    7    0   0.000    0.000    0.000  1
  1   9    1  1 1 2    18  16   100  256  256 -4924.00000   2.40488 1.68553e-002  -230  2271   0.00   0.00   0.00   -0.12  -40.64  -13.55 10.000  0.000 0 1 0 2  1.406  1.406  20.70    0.00     0.00    0.00   2   20.00     0    0    0    10   0.0  1   1    7    0   0.000    0.000    0.000  1
  1  10    1  1 1 2    19  16   100  256  256 -4924.00000   2.40488 1.68553e-002   336  2805   0.00   0.00   0.00   -0.12  -40.64  -13.55 10.000  0.000 0 1 0 2  1.406  1.406  23.00    0.00     0.00    0.00   2   20.00     0    0    0    10   0.0  1   1    7    0   0.000    0.000    0.000  1
  1   1    1  1 2 2    20  16   100  256  256 -4924.00000   2.40488 1.68553e-002  -327  2628   0.00   0.00   0.00   -0.12  -40.64  -13.55 10.000  0.000 0 1 0 2  1.406  1.406   2.30    0.00     0.00    0.00   2   20.00     0    0    0    10   0.0  1   1    7    0   0.000    0.000    0.000  1
  1   2    1  1 2 2    21  16   100  256  256 -4924.00000   2.40488 1.68553e-002  -429  3158   0.00   0.00   0.00   -0.12  -40.64  -13.55 10.000  0.000 0 1 0 2  1.406  1.406   4.60    0.00     0.00    0.00   2   20.00     0    0    0    10   0.0  1   1    7    0   0.000    0.000    0.000  1
  1   3    1  1 2 2    22  16   100  256  256 -4924.00000   2.40488 1.68553e-002  -446  2979   0.00   0.00   0.00   -0.12  -40.64  -13.55 10.000  0.000 0 1 0 2  1.406  1.406   6.90    0.00     0.00    0.00   2   20.00     0    0    0    10   0.0  1   1    7    0   0.000    0.000    0.000  1
  1   4    1  1 2 2    23  16   100  256  256 -4924.00000   2.40488 1.68553e-002  -236  2899   0.00   0.00   0.00   -0.12  -40.64  -13.55 10.000  0.000 0 1 0 2  1.406  1.406   9.20    0.00     0.00    0.00   2   20.00     0    0    0    10   0.0  1   1    7    0   0.000    0.000    0.000  1
  1   5    1  1 2 2    24  16   100  256  256 -4924.00000   2.40488 1.68553e-002  -450  2871   0.00   0.00   0.00   -0.12  -40.64  -13.55 10.000  0.000 0 1 0 2  1.406  1.406  11.50    0.00     0.00    0.00   2   20.00     0    0    0    10   0.0  1   1    7    0   0.000    0.000    0.000  1
  1   6    1  1 2 2    25  16   100  256  256 -4924.00000   2.40488 1.68553e-002  -348  3032   0.00   0.00   0.00   -0.12  -40.64  -13.55 10.000  0.000 0 1 0 2  1.406  1.406  13.80    0.00     0.00    0.00   2   20.00     0    0    0    10   0.0  1   1    7    0   0.000    0.000    0.000  1
  1   7    1  1 2 2    26  16   100  256  256 -4924.00000   2.40488 1.68553e-002  -299  2580   0.00   0.00   0.00   -0.12  -40.64  -13.55 10.000  0.000 0 1 0 2  1.406  1.406  16.10    0.00     0.00    0.00   2   20.00     0    0    0    10   0.0  1   1    7    0   0.000    0.000    0.000  1
  1   8    1  1 2 2    27  16   100  256  256 -4924.00000   2.40488 1.68553e-002  -103  3398   0.00   0.00   0.00   -0.12  -40.64  -13.55 10.000  0.000 0 1 0 2  1.406  1.406  18.40    0.00     0.00    0.00   2   20.00     0    0    0    10   0.0  1   1    7    0   0.000    0.000    0.000  1
  1   9    1  1 2 2    28  16   100  256  256 -4924.00000   2.40488 1.68553e-002  -157  3059   0.00   0.00   0.00   -0.12  -40.64  -13.55 10.000  0.000 0 1 0 2  1.406  1.406  20.70    0.00     0.00    0.00   2   20.00     0    0    0    10   0.0  1   1    7    0   0.000    0.000    0.000  1
  1  10    1  1 2 2    29  16   100  256  256 -4924.00000   2.40488 1.68553e-002  -315  2081   0.00   0.00   0.00   -0.12  -40.64  -13.55 10.000  0.000 0 1 0 2  1.406  1.406  23.00    0.00     0.00    0.00   2   20.00     0    0    0    10   0.0  1   1    7    0   0.000    0.000    0.000  1

# === END OF DATA DESCRIPTION FILE ===============================================
