# === DATA DESCRIPTION FILE ======================================================
#
# CAUTION - Investigational device.
# Limited by Federal Law to investigational use.
#
# Dataset name: E:\Export/fMRI_12_1
#
# CLINICAL TRYOUT             Research image export tool     V4
#
# === GENERAL INFORMATION ========================================================
#
.    Patient name                       :   test007
.    Examination name                   :   none
.    Protocol name                      :   *fMRI_FFE_KW SENSE
.    Examination date/time              :   2005.08.30 / 09:21:38
.    Series Type                        :   Image   MRSERIES
.    Acquisition nr                     :   12
.    Reconstruction nr                  :   1
.    Scan Duration [sec]                :   66.2
.    Max. number of cardiac phases      :   1
.    Max. number of echoes              :   1
.    Max. number of slices/locations    :   24
.    Max. number of dynamics            :   20
.    Max. number of mixes               :   1
.    Patient position                   :   Head First Supine
.    Preparation direction              :   Anterior-Posterior
.    Technique                          :   FEEPI
.    Scan resolution  (x, y)            :   64  64
.    Scan mode                          :   MS
.    Repetition time [ms]               :   3000.00  
.    FOV (ap,fh,rl) [mm]                :   230.00  96.00  230.00
.    Water Fat shift [pixels]           :   11.58
.    Angulation midslice(ap,fh,rl)[degr]:   0.00  0.00  0.00
.    Off Centre midslice(ap,fh,rl) [mm] :   0.00  0.00  0.00
.    Flow compensation <0=no 1=yes> ?   :   0
.    Presaturation     <0=no 1=yes> ?   :   1
.    Phase encoding velocity [cm/sec]   :   0.00  0.00  0.00
.    MTC               <0=no 1=yes> ?   :   0
.    SPIR              <0=no 1=yes> ?   :   1
.    EPI factor        <0,1=no EPI>     :   35
.    Dynamic scan      <0=no 1=yes> ?   :   1
.    Diffusion         <0=no 1=yes> ?   :   0
.    Diffusion echo time [ms]           :   0.00
#
# === PIXEL VALUES =============================================================
#  PV = pixel value in REC file, FP = floating point value, DV = displayed value on console
#  RS = rescale slope,           RI = rescale intercept,    SS = scale slope
#  DV = PV * RS + RI             FP = DV / (RS * SS)
#
# === IMAGE INFORMATION DEFINITION =============================================
#  The rest of this file contains ONE line per image, this line contains the following information:
#
#  slice number                             (integer)
#  echo number                              (integer)
#  dynamic scan number                      (integer)
#  cardiac phase number                     (integer)
#  image_type_mr                            (integer)
#  scanning sequence                        (integer)
#  index in REC file (in images)            (integer)
#  image pixel size (in bits)               (integer)
#  scan percentage                          (integer)
#  recon resolution (x y)                   (2*integer)
#  rescale intercept                        (float)
#  rescale slope                            (float)
#  scale slope                              (float)
#  window center                            (integer)
#  window width                             (integer)
#  image angulation (ap,fh,rl in degrees )  (3*float)
#  image offcentre (ap,fh,rl in mm )        (3*float)
#  slice thickness (in mm )                 (float)
#  slice gap (in mm )                       (float)
#  image_display_orientation                (integer)
#  slice orientation ( TRA/SAG/COR )        (integer)
#  fmri_status_indication                   (integer)
#  image_type_ed_es  (end diast/end syst)   (integer)
#  pixel spacing (x,y) (in mm)              (2*float)
#  echo_time                                (float)
#  dyn_scan_begin_time                      (float)
#  trigger_time                             (float)
#  diffusion_b_factor                       (float)
#  number of averages                       (integer)
#  image_flip_angle (in degrees)            (float)
#  cardiac frequency   (bpm)                (integer)
#  minimum RR-interval (in ms)              (integer)
#  maximum RR-interval (in ms)              (integer)
#  TURBO factor  <0=no turbo>               (integer)
#  Inversion delay (in ms)                  (float)
#
# === IMAGE INFORMATION ==========================================================
#sl ec dyn ph ty  idx pix scan% rec size (re)scale             window       angulation        offcentre           thick gap  info      spacing   echo dtime ttime diff  avg flip freq RR-int turbo delay

 1  1   1  1 0 2   0 16 100   64 64    0.0  1.238 6.520e-004  1000  2000   0.0   0.0   0.0    0.0  -46.0    0.0  4.0 0.0  0 1 1 2  3.594 3.594  15.1   0.0   0.0  0.000  1  90.0   0    0 0  0   0.0
 2  1   1  1 0 2   1 16 100   64 64    0.0  1.238 6.520e-004  1019  2039   0.0   0.0   0.0    0.0  -42.0    0.0  4.0 0.0  0 1 1 2  3.594 3.594  15.1   0.0   0.0  0.000  1  90.0   0    0 0  0   0.0
 3  1   1  1 0 2   2 16 100   64 64    0.0  1.238 6.520e-004  1035  2071   0.0   0.0   0.0    0.0  -38.0    0.0  4.0 0.0  0 1 1 2  3.594 3.594  15.1   0.0   0.0  0.000  1  90.0   0    0 0  0   0.0
 4  1   1  1 0 2   3 16 100   64 64    0.0  1.238 6.520e-004  1030  2059   0.0   0.0   0.0    0.0  -34.0    0.0  4.0 0.0  0 1 1 2  3.594 3.594  15.1   0.0   0.0  0.000  1  90.0   0    0 0  0   0.0
 5  1   1  1 0 2   4 16 100   64 64    0.0  1.238 6.520e-004  1037  2075   0.0   0.0   0.0    0.0  -30.0    0.0  4.0 0.0  0 1 1 2  3.594 3.594  15.1   0.0   0.0  0.000  1  90.0   0    0 0  0   0.0
 6  1   1  1 0 2   5 16 100   64 64    0.0  1.238 6.520e-004  1051  2102   0.0   0.0   0.0    0.0  -26.0    0.0  4.0 0.0  0 1 1 2  3.594 3.594  15.1   0.0   0.0  0.000  1  90.0   0    0 0  0   0.0
 7  1   1  1 0 2   6 16 100   64 64    0.0  1.238 6.520e-004  1088  2175   0.0   0.0   0.0    0.0  -22.0    0.0  4.0 0.0  0 1 1 2  3.594 3.594  15.1   0.0   0.0  0.000  1  90.0   0    0 0  0   0.0
 8  1   1  1 0 2   7 16 100   64 64    0.0  1.238 6.520e-004  1156  2311   0.0   0.0   0.0    0.0  -18.0    0.0  4.0 0.0  0 1 1 2  3.594 3.594  15.1   0.0   0.0  0.000  1  90.0   0    0 0  0   0.0
 9  1   1  1 0 2   8 16 100   64 64    0.0  1.238 6.520e-004  1156  2313   0.0   0.0   0.0    0.0  -14.0    0.0  4.0 0.0  0 1 1 2  3.594 3.594  15.1   0.0   0.0  0.000  1  90.0   0    0 0  0   0.0
10  1   1  1 0 2   9 16 100   64 64    0.0  1.238 6.520e-004  1145  2290   0.0   0.0   0.0    0.0  -10.0    0.0  4.0 0.0  0 1 1 2  3.594 3.594  15.1   0.0   0.0  0.000  1  90.0   0    0 0  0   0.0
11  1   1  1 0 2  10 16 100   64 64    0.0  1.238 6.520e-004  1135  2270   0.0   0.0   0.0    0.0   -6.0    0.0  4.0 0.0  0 1 1 2  3.594 3.594  15.1   0.0   0.0  0.000  1  90.0   0    0 0  0   0.0
12  1   1  1 0 2  11 16 100   64 64    0.0  1.238 6.520e-004  1145  2290   0.0   0.0   0.0    0.0   -2.0    0.0  4.0 0.0  0 1 1 2  3.594 3.594  15.1   0.0   0.0  0.000  1  90.0   0    0 0  0   0.0
13  1   1  1 0 2  12 16 100   64 64    0.0  1.238 6.520e-004  1149  2299   0.0   0.0   0.0    0.0    2.0    0.0  4.0 0.0  0 1 1 2  3.594 3.594  15.1   0.0   0.0  0.000  1  90.0   0    0 0  0   0.0
14  1   1  1 0 2  13 16 100   64 64    0.0  1.238 6.520e-004  1147  2294   0.0   0.0   0.0    0.0    6.0    0.0  4.0 0.0  0 1 1 2  3.594 3.594  15.1   0.0   0.0  0.000  1  90.0   0    0 0  0   0.0
15  1   1  1 0 2  14 16 100   64 64    0.0  1.238 6.520e-004  1147  2294   0.0   0.0   0.0    0.0   10.0    0.0  4.0 0.0  0 1 1 2  3.594 3.594  15.1   0.0   0.0  0.000  1  90.0   0    0 0  0   0.0
16  1   1  1 0 2  15 16 100   64 64    0.0  1.238 6.520e-004  1135  2271   0.0   0.0   0.0    0.0   14.0    0.0  4.0 0.0  0 1 1 2  3.594 3.594  15.1   0.0   0.0  0.000  1  90.0   0    0 0  0   0.0
17  1   1  1 0 2  16 16 100   64 64    0.0  1.238 6.520e-004  1154  2308   0.0   0.0   0.0    0.0   18.0    0.0  4.0 0.0  0 1 1 2  3.594 3.594  15.1   0.0   0.0  0.000  1  90.0   0    0 0  0   0.0
18  1   1  1 0 2  17 16 100   64 64    0.0  1.238 6.520e-004  1137  2274   0.0   0.0   0.0    0.0   22.0    0.0  4.0 0.0  0 1 1 2  3.594 3.594  15.1   0.0   0.0  0.000  1  90.0   0    0 0  0   0.0
19  1   1  1 0 2  18 16 100   64 64    0.0  1.238 6.520e-004  1133  2265   0.0   0.0   0.0    0.0   26.0    0.0  4.0 0.0  0 1 1 2  3.594 3.594  15.1   0.0   0.0  0.000  1  90.0   0    0 0  0   0.0
20  1   1  1 0 2  19 16 100   64 64    0.0  1.238 6.520e-004  1150  2299   0.0   0.0   0.0    0.0   30.0    0.0  4.0 0.0  0 1 1 2  3.594 3.594  15.1   0.0   0.0  0.000  1  90.0   0    0 0  0   0.0
21  1   1  1 0 2  20 16 100   64 64    0.0  1.238 6.520e-004  1129  2259   0.0   0.0   0.0    0.0   34.0    0.0  4.0 0.0  0 1 1 2  3.594 3.594  15.1   0.0   0.0  0.000  1  90.0   0    0 0  0   0.0
22  1   1  1 0 2  21 16 100   64 64    0.0  1.238 6.520e-004  1104  2207   0.0   0.0   0.0    0.0   38.0    0.0  4.0 0.0  0 1 1 2  3.594 3.594  15.1   0.0   0.0  0.000  1  90.0   0    0 0  0   0.0
23  1   1  1 0 2  22 16 100   64 64    0.0  1.238 6.520e-004  1094  2187   0.0   0.0   0.0    0.0   42.0    0.0  4.0 0.0  0 1 1 2  3.594 3.594  15.1   0.0   0.0  0.000  1  90.0   0    0 0  0   0.0
24  1   1  1 0 2  23 16 100   64 64    0.0  1.238 6.520e-004  1083  2167   0.0   0.0   0.0    0.0   46.0    0.0  4.0 0.0  0 1 1 2  3.594 3.594  15.1   0.0   0.0  0.000  1  90.0   0    0 0  0   0.0
 1  1   2  1 0 2  24 16 100   64 64    0.0  1.238 6.520e-004   999  1999   0.0   0.0   0.0    0.0  -46.0    0.0  4.0 0.0  0 1 2 2  3.594 3.594  15.1   3.0   0.0  0.000  1  90.0   0    0 0  0   0.0
 2  1   2  1 0 2  25 16 100   64 64    0.0  1.238 6.520e-004  1018  2036   0.0   0.0   0.0    0.0  -42.0    0.0  4.0 0.0  0 1 2 2  3.594 3.594  15.1   3.0   0.0  0.000  1  90.0   0    0 0  0   0.0
 3  1   2  1 0 2  26 16 100   64 64    0.0  1.238 6.520e-004  1033  2066   0.0   0.0   0.0    0.0  -38.0    0.0  4.0 0.0  0 1 2 2  3.594 3.594  15.1   3.0   0.0  0.000  1  90.0   0    0 0  0   0.0
 4  1   2  1 0 2  27 16 100   64 64    0.0  1.238 6.520e-004  1031  2062   0.0   0.0   0.0    0.0  -34.0    0.0  4.0 0.0  0 1 2 2  3.594 3.594  15.1   3.0   0.0  0.000  1  90.0   0    0 0  0   0.0
 5  1   2  1 0 2  28 16 100   64 64    0.0  1.238 6.520e-004  1037  2074   0.0   0.0   0.0    0.0  -30.0    0.0  4.0 0.0  0 1 2 2  3.594 3.594  15.1   3.0   0.0  0.000  1  90.0   0    0 0  0   0.0
 6  1   2  1 0 2  29 16 100   64 64    0.0  1.238 6.520e-004  1053  2105   0.0   0.0   0.0    0.0  -26.0    0.0  4.0 0.0  0 1 2 2  3.594 3.594  15.1   3.0   0.0  0.000  1  90.0   0    0 0  0   0.0
 7  1   2  1 0 2  30 16 100   64 64    0.0  1.238 6.520e-004  1085  2170   0.0   0.0   0.0    0.0  -22.0    0.0  4.0 0.0  0 1 2 2  3.594 3.594  15.1   3.0   0.0  0.000  1  90.0   0    0 0  0   0.0
 8  1   2  1 0 2  31 16 100   64 64    0.0  1.238 6.520e-004  1157  2313   0.0   0.0   0.0    0.0  -18.0    0.0  4.0 0.0  0 1 2 2  3.594 3.594  15.1   3.0   0.0  0.000  1  90.0   0    0 0  0   0.0
 9  1   2  1 0 2  32 16 100   64 64    0.0  1.238 6.520e-004  1158  2316   0.0   0.0   0.0    0.0  -14.0    0.0  4.0 0.0  0 1 2 2  3.594 3.594  15.1   3.0   0.0  0.000  1  90.0   0    0 0  0   0.0
10  1   2  1 0 2  33 16 100   64 64    0.0  1.238 6.520e-004  1148  2295   0.0   0.0   0.0    0.0  -10.0    0.0  4.0 0.0  0 1 2 2  3.594 3.594  15.1   3.0   0.0  0.000  1  90.0   0    0 0  0   0.0
11  1   2  1 0 2  34 16 100   64 64    0.0  1.238 6.520e-004  1134  2268   0.0   0.0   0.0    0.0   -6.0    0.0  4.0 0.0  0 1 2 2  3.594 3.594  15.1   3.0   0.0  0.000  1  90.0   0    0 0  0   0.0
12  1   2  1 0 2  35 16 100   64 64    0.0  1.238 6.520e-004  1150  2300   0.0   0.0   0.0    0.0   -2.0    0.0  4.0 0.0  0 1 2 2  3.594 3.594  15.1   3.0   0.0  0.000  1  90.0   0    0 0  0   0.0
13  1   2  1 0 2  36 16 100   64 64    0.0  1.238 6.520e-004  1152  2304   0.0   0.0   0.0    0.0    2.0    0.0  4.0 0.0  0 1 2 2  3.594 3.594  15.1   3.0   0.0  0.000  1  90.0   0    0 0  0   0.0
14  1   2  1 0 2  37 16 100   64 64    0.0  1.238 6.520e-004  1149  2298   0.0   0.0   0.0    0.0    6.0    0.0  4.0 0.0  0 1 2 2  3.594 3.594  15.1   3.0   0.0  0.000  1  90.0   0    0 0  0   0.0
15  1   2  1 0 2  38 16 100   64 64    0.0  1.238 6.520e-004  1140  2280   0.0   0.0   0.0    0.0   10.0    0.0  4.0 0.0  0 1 2 2  3.594 3.594  15.1   3.0   0.0  0.000  1  90.0   0    0 0  0   0.0
16  1   2  1 0 2  39 16 100   64 64    0.0  1.238 6.520e-004  1142  2284   0.0   0.0   0.0    0.0   14.0    0.0  4.0 0.0  0 1 2 2  3.594 3.594  15.1   3.0   0.0  0.000  1  90.0   0    0 0  0   0.0
17  1   2  1 0 2  40 16 100   64 64    0.0  1.238 6.520e-004  1154  2309   0.0   0.0   0.0    0.0   18.0    0.0  4.0 0.0  0 1 2 2  3.594 3.594  15.1   3.0   0.0  0.000  1  90.0   0    0 0  0   0.0
18  1   2  1 0 2  41 16 100   64 64    0.0  1.238 6.520e-004  1136  2272   0.0   0.0   0.0    0.0   22.0    0.0  4.0 0.0  0 1 2 2  3.594 3.594  15.1   3.0   0.0  0.000  1  90.0   0    0 0  0   0.0
19  1   2  1 0 2  42 16 100   64 64    0.0  1.238 6.520e-004  1133  2265   0.0   0.0   0.0    0.0   26.0    0.0  4.0 0.0  0 1 2 2  3.594 3.594  15.1   3.0   0.0  0.000  1  90.0   0    0 0  0   0.0
20  1   2  1 0 2  43 16 100   64 64    0.0  1.238 6.520e-004  1146  2292   0.0   0.0   0.0    0.0   30.0    0.0  4.0 0.0  0 1 2 2  3.594 3.594  15.1   3.0   0.0  0.000  1  90.0   0    0 0  0   0.0
21  1   2  1 0 2  44 16 100   64 64    0.0  1.238 6.520e-004  1142  2283   0.0   0.0   0.0    0.0   34.0    0.0  4.0 0.0  0 1 2 2  3.594 3.594  15.1   3.0   0.0  0.000  1  90.0   0    0 0  0   0.0
22  1   2  1 0 2  45 16 100   64 64    0.0  1.238 6.520e-004  1109  2217   0.0   0.0   0.0    0.0   38.0    0.0  4.0 0.0  0 1 2 2  3.594 3.594  15.1   3.0   0.0  0.000  1  90.0   0    0 0  0   0.0
23  1   2  1 0 2  46 16 100   64 64    0.0  1.238 6.520e-004  1091  2181   0.0   0.0   0.0    0.0   42.0    0.0  4.0 0.0  0 1 2 2  3.594 3.594  15.1   3.0   0.0  0.000  1  90.0   0    0 0  0   0.0
24  1   2  1 0 2  47 16 100   64 64    0.0  1.238 6.520e-004  1083  2165   0.0   0.0   0.0    0.0   46.0    0.0  4.0 0.0  0 1 2 2  3.594 3.594  15.1   3.0   0.0  0.000  1  90.0   0    0 0  0   0.0
 1  1   3  1 0 2  48 16 100   64 64    0.0  1.238 6.520e-004  1002  2004   0.0   0.0   0.0    0.0  -46.0    0.0  4.0 0.0  0 1 3 2  3.594 3.594  15.1   6.0   0.0  0.000  1  90.0   0    0 0  0   0.0
 2  1   3  1 0 2  49 16 100   64 64    0.0  1.238 6.520e-004  1021  2042   0.0   0.0   0.0    0.0  -42.0    0.0  4.0 0.0  0 1 3 2  3.594 3.594  15.1   6.0   0.0  0.000  1  90.0   0    0 0  0   0.0
 3  1   3  1 0 2  50 16 100   64 64    0.0  1.238 6.520e-004  1039  2077   0.0   0.0   0.0    0.0  -38.0    0.0  4.0 0.0  0 1 3 2  3.594 3.594  15.1   6.0   0.0  0.000  1  90.0   0    0 0  0   0.0
 4  1   3  1 0 2  51 16 100   64 64    0.0  1.238 6.520e-004  1034  2068   0.0   0.0   0.0    0.0  -34.0    0.0  4.0 0.0  0 1 3 2  3.594 3.594  15.1   6.0   0.0  0.000  1  90.0   0    0 0  0   0.0
 5  1   3  1 0 2  52 16 100   64 64    0.0  1.238 6.520e-004  1040  2079   0.0   0.0   0.0    0.0  -30.0    0.0  4.0 0.0  0 1 3 2  3.594 3.594  15.1   6.0   0.0  0.000  1  90.0   0    0 0  0   0.0
 6  1   3  1 0 2  53 16 100   64 64    0.0  1.238 6.520e-004  1047  2094   0.0   0.0   0.0    0.0  -26.0    0.0  4.0 0.0  0 1 3 2  3.594 3.594  15.1   6.0   0.0  0.000  1  90.0   0    0 0  0   0.0
 7  1   3  1 0 2  54 16 100   64 64    0.0  1.238 6.520e-004  1098  2196   0.0   0.0   0.0    0.0  -22.0    0.0  4.0 0.0  0 1 3 2  3.594 3.594  15.1   6.0   0.0  0.000  1  90.0   0    0 0  0   0.0
 8  1   3  1 0 2  55 16 100   64 64    0.0  1.238 6.520e-004  1160  2319   0.0   0.0   0.0    0.0  -18.0    0.0  4.0 0.0  0 1 3 2  3.594 3.594  15.1   6.0   0.0  0.000  1  90.0   0    0 0  0   0.0
 9  1   3  1 0 2  56 16 100   64 64    0.0  1.238 6.520e-004  1165  2329   0.0   0.0   0.0    0.0  -14.0    0.0  4.0 0.0  0 1 3 2  3.594 3.594  15.1   6.0   0.0  0.000  1  90.0   0    0 0  0   0.0
10  1   3  1 0 2  57 16 100   64 64    0.0  1.238 6.520e-004  1152  2303   0.0   0.0   0.0    0.0  -10.0    0.0  4.0 0.0  0 1 3 2  3.594 3.594  15.1   6.0   0.0  0.000  1  90.0   0    0 0  0   0.0
11  1   3  1 0 2  58 16 100   64 64    0.0  1.238 6.520e-004  1140  2280   0.0   0.0   0.0    0.0   -6.0    0.0  4.0 0.0  0 1 3 2  3.594 3.594  15.1   6.0   0.0  0.000  1  90.0   0    0 0  0   0.0
12  1   3  1 0 2  59 16 100   64 64    0.0  1.238 6.520e-004  1141  2282   0.0   0.0   0.0    0.0   -2.0    0.0  4.0 0.0  0 1 3 2  3.594 3.594  15.1   6.0   0.0  0.000  1  90.0   0    0 0  0   0.0
13  1   3  1 0 2  60 16 100   64 64    0.0  1.238 6.520e-004  1149  2299   0.0   0.0   0.0    0.0    2.0    0.0  4.0 0.0  0 1 3 2  3.594 3.594  15.1   6.0   0.0  0.000  1  90.0   0    0 0  0   0.0
14  1   3  1 0 2  61 16 100   64 64    0.0  1.238 6.520e-004  1144  2287   0.0   0.0   0.0    0.0    6.0    0.0  4.0 0.0  0 1 3 2  3.594 3.594  15.1   6.0   0.0  0.000  1  90.0   0    0 0  0   0.0
15  1   3  1 0 2  62 16 100   64 64    0.0  1.238 6.520e-004  1148  2295   0.0   0.0   0.0    0.0   10.0    0.0  4.0 0.0  0 1 3 2  3.594 3.594  15.1   6.0   0.0  0.000  1  90.0   0    0 0  0   0.0
16  1   3  1 0 2  63 16 100   64 64    0.0  1.238 6.520e-004  1151  2302   0.0   0.0   0.0    0.0   14.0    0.0  4.0 0.0  0 1 3 2  3.594 3.594  15.1   6.0   0.0  0.000  1  90.0   0    0 0  0   0.0
17  1   3  1 0 2  64 16 100   64 64    0.0  1.238 6.520e-004  1162  2323   0.0   0.0   0.0    0.0   18.0    0.0  4.0 0.0  0 1 3 2  3.594 3.594  15.1   6.0   0.0  0.000  1  90.0   0    0 0  0   0.0
18  1   3  1 0 2  65 16 100   64 64    0.0  1.238 6.520e-004  1142  2284   0.0   0.0   0.0    0.0   22.0    0.0  4.0 0.0  0 1 3 2  3.594 3.594  15.1   6.0   0.0  0.000  1  90.0   0    0 0  0   0.0
19  1   3  1 0 2  66 16 100   64 64    0.0  1.238 6.520e-004  1125  2250   0.0   0.0   0.0    0.0   26.0    0.0  4.0 0.0  0 1 3 2  3.594 3.594  15.1   6.0   0.0  0.000  1  90.0   0    0 0  0   0.0
20  1   3  1 0 2  67 16 100   64 64    0.0  1.238 6.520e-004  1144  2288   0.0   0.0   0.0    0.0   30.0    0.0  4.0 0.0  0 1 3 2  3.594 3.594  15.1   6.0   0.0  0.000  1  90.0   0    0 0  0   0.0
21  1   3  1 0 2  68 16 100   64 64    0.0  1.238 6.520e-004  1137  2273   0.0   0.0   0.0    0.0   34.0    0.0  4.0 0.0  0 1 3 2  3.594 3.594  15.1   6.0   0.0  0.000  1  90.0   0    0 0  0   0.0
22  1   3  1 0 2  69 16 100   64 64    0.0  1.238 6.520e-004  1105  2210   0.0   0.0   0.0    0.0   38.0    0.0  4.0 0.0  0 1 3 2  3.594 3.594  15.1   6.0   0.0  0.000  1  90.0   0    0 0  0   0.0
23  1   3  1 0 2  70 16 100   64 64    0.0  1.238 6.520e-004  1096  2192   0.0   0.0   0.0    0.0   42.0    0.0  4.0 0.0  0 1 3 2  3.594 3.594  15.1   6.0   0.0  0.000  1  90.0   0    0 0  0   0.0
24  1   3  1 0 2  71 16 100   64 64    0.0  1.238 6.520e-004  1075  2150   0.0   0.0   0.0    0.0   46.0    0.0  4.0 0.0  0 1 3 2  3.594 3.594  15.1   6.0   0.0  0.000  1  90.0   0    0 0  0   0.0
 1  1   4  1 0 2  72 16 100   64 64    0.0  1.238 6.520e-004  1002  2004   0.0   0.0   0.0    0.0  -46.0    0.0  4.0 0.0  0 1 4 2  3.594 3.594  15.1   9.0   0.0  0.000  1  90.0   0    0 0  0   0.0
 2  1   4  1 0 2  73 16 100   64 64    0.0  1.238 6.520e-004  1020  2040   0.0   0.0   0.0    0.0  -42.0    0.0  4.0 0.0  0 1 4 2  3.594 3.594  15.1   9.0   0.0  0.000  1  90.0   0    0 0  0   0.0
 3  1   4  1 0 2  74 16 100   64 64    0.0  1.238 6.520e-004  1030  2060   0.0   0.0   0.0    0.0  -38.0    0.0  4.0 0.0  0 1 4 2  3.594 3.594  15.1   9.0   0.0  0.000  1  90.0   0    0 0  0   0.0
 4  1   4  1 0 2  75 16 100   64 64    0.0  1.238 6.520e-004  1037  2074   0.0   0.0   0.0    0.0  -34.0    0.0  4.0 0.0  0 1 4 2  3.594 3.594  15.1   9.0   0.0  0.000  1  90.0   0    0 0  0   0.0
 5  1   4  1 0 2  76 16 100   64 64    0.0  1.238 6.520e-004  1033  2066   0.0   0.0   0.0    0.0  -30.0    0.0  4.0 0.0  0 1 4 2  3.594 3.594  15.1   9.0   0.0  0.000  1  90.0   0    0 0  0   0.0
 6  1   4  1 0 2  77 16 100   64 64    0.0  1.238 6.520e-004  1044  2089   0.0   0.0   0.0    0.0  -26.0    0.0  4.0 0.0  0 1 4 2  3.594 3.594  15.1   9.0   0.0  0.000  1  90.0   0    0 0  0   0.0
 7  1   4  1 0 2  78 16 100   64 64    0.0  1.238 6.520e-004  1099  2199   0.0   0.0   0.0    0.0  -22.0    0.0  4.0 0.0  0 1 4 2  3.594 3.594  15.1   9.0   0.0  0.000  1  90.0   0    0 0  0   0.0
 8  1   4  1 0 2  79 16 100   64 64    0.0  1.238 6.520e-004  1162  2324   0.0   0.0   0.0    0.0  -18.0    0.0  4.0 0.0  0 1 4 2  3.594 3.594  15.1   9.0   0.0  0.000  1  90.0   0    0 0  0   0.0
 9  1   4  1 0 2  80 16 100   64 64    0.0  1.238 6.520e-004  1160  2321   0.0   0.0   0.0    0.0  -14.0    0.0  4.0 0.0  0 1 4 2  3.594 3.594  15.1   9.0   0.0  0.000  1  90.0   0    0 0  0   0.0
10  1   4  1 0 2  81 16 100   64 64    0.0  1.238 6.520e-004  1152  2303   0.0   0.0   0.0    0.0  -10.0    0.0  4.0 0.0  0 1 4 2  3.594 3.594  15.1   9.0   0.0  0.000  1  90.0   0    0 0  0   0.0
11  1   4  1 0 2  82 16 100   64 64    0.0  1.238 6.520e-004  1123  2246   0.0   0.0   0.0    0.0   -6.0    0.0  4.0 0.0  0 1 4 2  3.594 3.594  15.1   9.0   0.0  0.000  1  90.0   0    0 0  0   0.0
12  1   4  1 0 2  83 16 100   64 64    0.0  1.238 6.520e-004  1139  2278   0.0   0.0   0.0    0.0   -2.0    0.0  4.0 0.0  0 1 4 2  3.594 3.594  15.1   9.0   0.0  0.000  1  90.0   0    0 0  0   0.0
13  1   4  1 0 2  84 16 100   64 64    0.0  1.238 6.520e-004  1142  2284   0.0   0.0   0.0    0.0    2.0    0.0  4.0 0.0  0 1 4 2  3.594 3.594  15.1   9.0   0.0  0.000  1  90.0   0    0 0  0   0.0
14  1   4  1 0 2  85 16 100   64 64    0.0  1.238 6.520e-004  1150  2300   0.0   0.0   0.0    0.0    6.0    0.0  4.0 0.0  0 1 4 2  3.594 3.594  15.1   9.0   0.0  0.000  1  90.0   0    0 0  0   0.0
15  1   4  1 0 2  86 16 100   64 64    0.0  1.238 6.520e-004  1142  2284   0.0   0.0   0.0    0.0   10.0    0.0  4.0 0.0  0 1 4 2  3.594 3.594  15.1   9.0   0.0  0.000  1  90.0   0    0 0  0   0.0
16  1   4  1 0 2  87 16 100   64 64    0.0  1.238 6.520e-004  1142  2284   0.0   0.0   0.0    0.0   14.0    0.0  4.0 0.0  0 1 4 2  3.594 3.594  15.1   9.0   0.0  0.000  1  90.0   0    0 0  0   0.0
17  1   4  1 0 2  88 16 100   64 64    0.0  1.238 6.520e-004  1149  2299   0.0   0.0   0.0    0.0   18.0    0.0  4.0 0.0  0 1 4 2  3.594 3.594  15.1   9.0   0.0  0.000  1  90.0   0    0 0  0   0.0
18  1   4  1 0 2  89 16 100   64 64    0.0  1.238 6.520e-004  1136  2273   0.0   0.0   0.0    0.0   22.0    0.0  4.0 0.0  0 1 4 2  3.594 3.594  15.1   9.0   0.0  0.000  1  90.0   0    0 0  0   0.0
19  1   4  1 0 2  90 16 100   64 64    0.0  1.238 6.520e-004  1120  2240   0.0   0.0   0.0    0.0   26.0    0.0  4.0 0.0  0 1 4 2  3.594 3.594  15.1   9.0   0.0  0.000  1  90.0   0    0 0  0   0.0
20  1   4  1 0 2  91 16 100   64 64    0.0  1.238 6.520e-004  1147  2294   0.0   0.0   0.0    0.0   30.0    0.0  4.0 0.0  0 1 4 2  3.594 3.594  15.1   9.0   0.0  0.000  1  90.0   0    0 0  0   0.0
21  1   4  1 0 2  92 16 100   64 64    0.0  1.238 6.520e-004  1133  2265   0.0   0.0   0.0    0.0   34.0    0.0  4.0 0.0  0 1 4 2  3.594 3.594  15.1   9.0   0.0  0.000  1  90.0   0    0 0  0   0.0
22  1   4  1 0 2  93 16 100   64 64    0.0  1.238 6.520e-004  1104  2208   0.0   0.0   0.0    0.0   38.0    0.0  4.0 0.0  0 1 4 2  3.594 3.594  15.1   9.0   0.0  0.000  1  90.0   0    0 0  0   0.0
23  1   4  1 0 2  94 16 100   64 64    0.0  1.238 6.520e-004  1091  2182   0.0   0.0   0.0    0.0   42.0    0.0  4.0 0.0  0 1 4 2  3.594 3.594  15.1   9.0   0.0  0.000  1  90.0   0    0 0  0   0.0
24  1   4  1 0 2  95 16 100   64 64    0.0  1.238 6.520e-004  1082  2163   0.0   0.0   0.0    0.0   46.0    0.0  4.0 0.0  0 1 4 2  3.594 3.594  15.1   9.0   0.0  0.000  1  90.0   0    0 0  0   0.0
 1  1   5  1 0 2  96 16 100   64 64    0.0  1.238 6.520e-004   997  1994   0.0   0.0   0.0    0.0  -46.0    0.0  4.0 0.0  0 1 5 2  3.594 3.594  15.1  12.0   0.0  0.000  1  90.0   0    0 0  0   0.0
 2  1   5  1 0 2  97 16 100   64 64    0.0  1.238 6.520e-004  1022  2043   0.0   0.0   0.0    0.0  -42.0    0.0  4.0 0.0  0 1 5 2  3.594 3.594  15.1  12.0   0.0  0.000  1  90.0   0    0 0  0   0.0
 3  1   5  1 0 2  98 16 100   64 64    0.0  1.238 6.520e-004  1030  2059   0.0   0.0   0.0    0.0  -38.0    0.0  4.0 0.0  0 1 5 2  3.594 3.594  15.1  12.0   0.0  0.000  1  90.0   0    0 0  0   0.0
 4  1   5  1 0 2  99 16 100   64 64    0.0  1.238 6.520e-004  1033  2065   0.0   0.0   0.0    0.0  -34.0    0.0  4.0 0.0  0 1 5 2  3.594 3.594  15.1  12.0   0.0  0.000  1  90.0   0    0 0  0   0.0
 5  1   5  1 0 2 100 16 100   64 64    0.0  1.238 6.520e-004  1038  2076   0.0   0.0   0.0    0.0  -30.0    0.0  4.0 0.0  0 1 5 2  3.594 3.594  15.1  12.0   0.0  0.000  1  90.0   0    0 0  0   0.0
 6  1   5  1 0 2 101 16 100   64 64    0.0  1.238 6.520e-004  1051  2101   0.0   0.0   0.0    0.0  -26.0    0.0  4.0 0.0  0 1 5 2  3.594 3.594  15.1  12.0   0.0  0.000  1  90.0   0    0 0  0   0.0
 7  1   5  1 0 2 102 16 100   64 64    0.0  1.238 6.520e-004  1083  2167   0.0   0.0   0.0    0.0  -22.0    0.0  4.0 0.0  0 1 5 2  3.594 3.594  15.1  12.0   0.0  0.000  1  90.0   0    0 0  0   0.0
 8  1   5  1 0 2 103 16 100   64 64    0.0  1.238 6.520e-004  1152  2305   0.0   0.0   0.0    0.0  -18.0    0.0  4.0 0.0  0 1 5 2  3.594 3.594  15.1  12.0   0.0  0.000  1  90.0   0    0 0  0   0.0
 9  1   5  1 0 2 104 16 100   64 64    0.0  1.238 6.520e-004  1151  2303   0.0   0.0   0.0    0.0  -14.0    0.0  4.0 0.0  0 1 5 2  3.594 3.594  15.1  12.0   0.0  0.000  1  90.0   0    0 0  0   0.0
10  1   5  1 0 2 105 16 100   64 64    0.0  1.238 6.520e-004  1145  2291   0.0   0.0   0.0    0.0  -10.0    0.0  4.0 0.0  0 1 5 2  3.594 3.594  15.1  12.0   0.0  0.000  1  90.0   0    0 0  0   0.0
11  1   5  1 0 2 106 16 100   64 64    0.0  1.238 6.520e-004  1135  2270   0.0   0.0   0.0    0.0   -6.0    0.0  4.0 0.0  0 1 5 2  3.594 3.594  15.1  12.0   0.0  0.000  1  90.0   0    0 0  0   0.0
12  1   5  1 0 2 107 16 100   64 64    0.0  1.238 6.520e-004  1150  2299   0.0   0.0   0.0    0.0   -2.0    0.0  4.0 0.0  0 1 5 2  3.594 3.594  15.1  12.0   0.0  0.000  1  90.0   0    0 0  0   0.0
13  1   5  1 0 2 108 16 100   64 64    0.0  1.238 6.520e-004  1149  2298   0.0   0.0   0.0    0.0    2.0    0.0  4.0 0.0  0 1 5 2  3.594 3.594  15.1  12.0   0.0  0.000  1  90.0   0    0 0  0   0.0
14  1   5  1 0 2 109 16 100   64 64    0.0  1.238 6.520e-004  1149  2297   0.0   0.0   0.0    0.0    6.0    0.0  4.0 0.0  0 1 5 2  3.594 3.594  15.1  12.0   0.0  0.000  1  90.0   0    0 0  0   0.0
15  1   5  1 0 2 110 16 100   64 64    0.0  1.238 6.520e-004  1141  2283   0.0   0.0   0.0    0.0   10.0    0.0  4.0 0.0  0 1 5 2  3.594 3.594  15.1  12.0   0.0  0.000  1  90.0   0    0 0  0   0.0
16  1   5  1 0 2 111 16 100   64 64    0.0  1.238 6.520e-004  1136  2272   0.0   0.0   0.0    0.0   14.0    0.0  4.0 0.0  0 1 5 2  3.594 3.594  15.1  12.0   0.0  0.000  1  90.0   0    0 0  0   0.0
17  1   5  1 0 2 112 16 100   64 64    0.0  1.238 6.520e-004  1153  2307   0.0   0.0   0.0    0.0   18.0    0.0  4.0 0.0  0 1 5 2  3.594 3.594  15.1  12.0   0.0  0.000  1  90.0   0    0 0  0   0.0
18  1   5  1 0 2 113 16 100   64 64    0.0  1.238 6.520e-004  1137  2275   0.0   0.0   0.0    0.0   22.0    0.0  4.0 0.0  0 1 5 2  3.594 3.594  15.1  12.0   0.0  0.000  1  90.0   0    0 0  0   0.0
19  1   5  1 0 2 114 16 100   64 64    0.0  1.238 6.520e-004  1134  2268   0.0   0.0   0.0    0.0   26.0    0.0  4.0 0.0  0 1 5 2  3.594 3.594  15.1  12.0   0.0  0.000  1  90.0   0    0 0  0   0.0
20  1   5  1 0 2 115 16 100   64 64    0.0  1.238 6.520e-004  1147  2294   0.0   0.0   0.0    0.0   30.0    0.0  4.0 0.0  0 1 5 2  3.594 3.594  15.1  12.0   0.0  0.000  1  90.0   0    0 0  0   0.0
21  1   5  1 0 2 116 16 100   64 64    0.0  1.238 6.520e-004  1134  2269   0.0   0.0   0.0    0.0   34.0    0.0  4.0 0.0  0 1 5 2  3.594 3.594  15.1  12.0   0.0  0.000  1  90.0   0    0 0  0   0.0
22  1   5  1 0 2 117 16 100   64 64    0.0  1.238 6.520e-004  1110  2220   0.0   0.0   0.0    0.0   38.0    0.0  4.0 0.0  0 1 5 2  3.594 3.594  15.1  12.0   0.0  0.000  1  90.0   0    0 0  0   0.0
23  1   5  1 0 2 118 16 100   64 64    0.0  1.238 6.520e-004  1086  2172   0.0   0.0   0.0    0.0   42.0    0.0  4.0 0.0  0 1 5 2  3.594 3.594  15.1  12.0   0.0  0.000  1  90.0   0    0 0  0   0.0
24  1   5  1 0 2 119 16 100   64 64    0.0  1.238 6.520e-004  1083  2166   0.0   0.0   0.0    0.0   46.0    0.0  4.0 0.0  0 1 5 2  3.594 3.594  15.1  12.0   0.0  0.000  1  90.0   0    0 0  0   0.0
 1  1   6  1 0 2 120 16 100   64 64    0.0  1.238 6.520e-004   999  1997   0.0   0.0   0.0    0.0  -46.0    0.0  4.0 0.0  0 1 6 2  3.594 3.594  15.1  15.1   0.0  0.000  1  90.0   0    0 0  0   0.0
 2  1   6  1 0 2 121 16 100   64 64    0.0  1.238 6.520e-004  1015  2031   0.0   0.0   0.0    0.0  -42.0    0.0  4.0 0.0  0 1 6 2  3.594 3.594  15.1  15.1   0.0  0.000  1  90.0   0    0 0  0   0.0
 3  1   6  1 0 2 122 16 100   64 64    0.0  1.238 6.520e-004  1036  2071   0.0   0.0   0.0    0.0  -38.0    0.0  4.0 0.0  0 1 6 2  3.594 3.594  15.1  15.1   0.0  0.000  1  90.0   0    0 0  0   0.0
 4  1   6  1 0 2 123 16 100   64 64    0.0  1.238 6.520e-004  1033  2067   0.0   0.0   0.0    0.0  -34.0    0.0  4.0 0.0  0 1 6 2  3.594 3.594  15.1  15.1   0.0  0.000  1  90.0   0    0 0  0   0.0
 5  1   6  1 0 2 124 16 100   64 64    0.0  1.238 6.520e-004  1040  2080   0.0   0.0   0.0    0.0  -30.0    0.0  4.0 0.0  0 1 6 2  3.594 3.594  15.1  15.1   0.0  0.000  1  90.0   0    0 0  0   0.0
 6  1   6  1 0 2 125 16 100   64 64    0.0  1.238 6.520e-004  1053  2106   0.0   0.0   0.0    0.0  -26.0    0.0  4.0 0.0  0 1 6 2  3.594 3.594  15.1  15.1   0.0  0.000  1  90.0   0    0 0  0   0.0
 7  1   6  1 0 2 126 16 100   64 64    0.0  1.238 6.520e-004  1085  2170   0.0   0.0   0.0    0.0  -22.0    0.0  4.0 0.0  0 1 6 2  3.594 3.594  15.1  15.1   0.0  0.000  1  90.0   0    0 0  0   0.0
