# === DATA DESCRIPTION FILE ======================================================
#
# CAUTION - Investigational device.
# Limited by Federal Law to investigational use.
#
# Dataset name: E:\\Export\JNT_RPI-NI
#
# CLINICAL TRYOUT             Research image export tool     V4.2
#
# === GENERAL INFORMATION ========================================================
#
.    Patient name                       :   JNT (volunteer)
.    Examination name                   :   qASL
.    Protocol name                      :   RPI-NI SENSE
.    Examination date/time              :   2009.02.23 / 18:12:29
.    Series Type                        :   Image   MRSERIES
.    Acquisition nr                     :   5
.    Reconstruction nr                  :   1
.    Scan Duration [sec]                :   544
.    Max. number of cardiac phases      :   13
.    Max. number of echoes              :   1
.    Max. number of slices/locations    :   7
.    Max. number of dynamics            :   132
.    Max. number of mixes               :   1
.    Patient position                   :   Head First Supine
.    Preparation direction              :   Anterior-Posterior
.    Technique                          :   PASL-QA-M-RNI-NC-PPS-NQ-NBS
.    Scan resolution  (x, y)            :   64  62
.    Scan mode                          :   MS
.    Repetition time [ms]               :   300.000  
.    FOV (ap,fh,rl) [mm]                :   240.000  54.000  240.000
.    Water Fat shift [pixels]           :   14.565
.    Angulation midslice(ap,fh,rl)[degr]:   -2.291  -2.697  -0.714
.    Off Centre midslice(ap,fh,rl) [mm] :   -7.756  20.560  -7.700
.    Flow compensation <0=no 1=yes> ?   :   1
.    Presaturation     <0=no 1=yes> ?   :   0
.    Phase encoding velocity [cm/sec]   :   0.000000  0.000000  0.000000
.    MTC               <0=no 1=yes> ?   :   0
.    SPIR              <0=no 1=yes> ?   :   0
.    EPI factor        <0,1=no EPI>     :   27
.    Dynamic scan      <0=no 1=yes> ?   :   1
.    Diffusion         <0=no 1=yes> ?   :   0
.    Diffusion echo time [ms]           :   0.0000
.    Max. number of diffusion values    :   1
.    Max. number of gradient orients    :   1
.    Number of label types   <0=no ASL> :   1
#
# === PIXEL VALUES =============================================================
#  PV = pixel value in REC file, FP = floating point value, DV = displayed value on console
#  RS = rescale slope,           RI = rescale intercept,    SS = scale slope
#  DV = PV * RS + RI             FP = DV / (RS * SS)
#
# === IMAGE INFORMATION DEFINITION =============================================
#  The rest of this file contains ONE line per image, this line contains the following information:
#
#  slice number                             (integer)
#  echo number                              (integer)
#  dynamic scan number                      (integer)
#  cardiac phase number                     (integer)
#  image_type_mr                            (integer)
#  scanning sequence                        (integer)
#  index in REC file (in images)            (integer)
#  image pixel size (in bits)               (integer)
#  scan percentage                          (integer)
#  recon resolution (x y)                   (2*integer)
#  rescale intercept                        (float)
#  rescale slope                            (float)
#  scale slope                              (float)
#  window center                            (integer)
#  window width                             (integer)
#  image angulation (ap,fh,rl in degrees )  (3*float)
#  image offcentre (ap,fh,rl in mm )        (3*float)
#  slice thickness (in mm )                 (float)
#  slice gap (in mm )                       (float)
#  image_display_orientation                (integer)
#  slice orientation ( TRA/SAG/COR )        (integer)
#  fmri_status_indication                   (integer)
#  image_type_ed_es  (end diast/end syst)   (integer)
#  pixel spacing (x,y) (in mm)              (2*float)
#  echo_time                                (float)
#  dyn_scan_begin_time                      (float)
#  trigger_time                             (float)
#  diffusion_b_factor                       (float)
#  number of averages                       (integer)
#  image_flip_angle (in degrees)            (float)
#  cardiac frequency   (bpm)                (integer)
#  minimum RR-interval (in ms)              (integer)
#  maximum RR-interval (in ms)              (integer)
#  TURBO factor  <0=no turbo>               (integer)
#  Inversion delay (in ms)                  (float)
#  diffusion b value number    (imagekey!)  (integer)
#  gradient orientation number (imagekey!)  (integer)
#  contrast type                            (string)
#  diffusion anisotropy type                (string)
#  diffusion (ap, fh, rl)                   (3*float)
#  label type (ASL)            (imagekey!)  (integer)
#
# === IMAGE INFORMATION ==========================================================
#  sl ec  dyn ph ty    idx pix scan% rec size                (re)scale              window        angulation              offcentre        thick   gap   info      spacing     echo     dtime   ttime    diff  avg  flip    freq   RR-int  turbo delay b grad cont anis         diffusion       L.ty

  1   1    1  1 0 2     0  16   100   64   64     0.00000  33.04396 6.26601e-004   881  1531  -2.29  -2.70  -0.71   -8.05   -3.42   -6.74  6.000  2.000 0 1 0 2  3.750  3.750  21.99    0.00    89.00    0.00   1   35.00    15    0    0    27  40.0  1   1    3    0   0.000    0.000    0.000  1
  2   1    1  1 0 2     1  16   100   64   64     0.00000  33.04396 6.26601e-004  2148  3734  -2.29  -2.70  -0.71   -7.95    4.57   -7.06  6.000  2.000 0 1 0 2  3.750  3.750  21.99    0.00   132.00    0.00   1   35.00    15    0    0    27  40.0  1   1    3    0   0.000    0.000    0.000  1
  3   1    1  1 0 2     2  16   100   64   64     0.00000  33.04396 6.26601e-004  3744  6507  -2.29  -2.70  -0.71   -7.86   12.57   -7.38  6.000  2.000 0 1 0 2  3.750  3.750  21.99    0.00   175.00    0.00   1   35.00    15    0    0    27  40.0  1   1    3    0   0.000    0.000    0.000  1
  4   1    1  1 0 2     3  16   100   64   64     0.00000  33.04396 6.26601e-004  4839  8412  -2.29  -2.70  -0.71   -7.76   20.56   -7.70  6.000  2.000 0 1 0 2  3.750  3.750  21.99    0.00   218.00    0.00   1   35.00    15    0    0    27  40.0  1   1    3    0   0.000    0.000    0.000  1
  5   1    1  1 0 2     4  16   100   64   64     0.00000  33.04396 6.26601e-004  4695  8162  -2.29  -2.70  -0.71   -7.66   28.55   -8.02  6.000  2.000 0 1 0 2  3.750  3.750  21.99    0.00   260.00    0.00   1   35.00    15    0    0    27  40.0  1   1    3    0   0.000    0.000    0.000  1
  6   1    1  1 0 2     5  16   100   64   64     0.00000  33.04396 6.26601e-004  5945 10335  -2.29  -2.70  -0.71   -7.56   36.55   -8.34  6.000  2.000 0 1 0 2  3.750  3.750  21.99    0.00   303.00    0.00   1   35.00    15    0    0    27  40.0  1   1    3    0   0.000    0.000    0.000  1
  7   1    1  1 0 2     6  16   100   64   64     0.00000  33.04396 6.26601e-004  6201 10779  -2.29  -2.70  -0.71   -7.46   44.54   -8.66  6.000  2.000 0 1 0 2  3.750  3.750  21.99    0.00   346.00    0.00   1   35.00    15    0    0    27  40.0  1   1    3    0   0.000    0.000    0.000  1
  1   1    2  1 0 2     7  16   100   64   64     0.00000  33.04396 6.26601e-004  1026  1783  -2.29  -2.70  -0.71   -8.05   -3.42   -6.74  6.000  2.000 0 1 0 2  3.750  3.750  21.99    4.00    89.00    0.00   1   35.00    15    0    0    27  40.0  1   1    3    0   0.000    0.000    0.000  1
  2   1    2  1 0 2     8  16   100   64   64     0.00000  33.04396 6.26601e-004  2224  3866  -2.29  -2.70  -0.71   -7.95    4.57   -7.06  6.000  2.000 0 1 0 2  3.750  3.750  21.99    4.00   132.00    0.00   1   35.00    15    0    0    27  40.0  1   1    3    0   0.000    0.000    0.000  1
  3   1    2  1 0 2     9  16   100   64   64     0.00000  33.04396 6.26601e-004  3634  6317  -2.29  -2.70  -0.71   -7.86   12.57   -7.38  6.000  2.000 0 1 0 2  3.750  3.750  21.99    4.00   175.00    0.00   1   35.00    15    0    0    27  40.0  1   1    3    0   0.000    0.000    0.000  1
  4   1    2  1 0 2    10  16   100   64   64     0.00000  33.04396 6.26601e-004  4891  8503  -2.29  -2.70  -0.71   -7.76   20.56   -7.70  6.000  2.000 0 1 0 2  3.750  3.750  21.99    4.00   218.00    0.00   1   35.00    15    0    0    27  40.0  1   1    3    0   0.000    0.000    0.000  1
  5   1    2  1 0 2    11  16   100   64   64     0.00000  33.04396 6.26601e-004  4613  8018  -2.29  -2.70  -0.71   -7.66   28.55   -8.02  6.000  2.000 0 1 0 2  3.750  3.750  21.99    4.00   260.00    0.00   1   35.00    15    0    0    27  40.0  1   1    3    0   0.000    0.000    0.000  1
  6   1    2  1 0 2    12  16   100   64   64     0.00000  33.04396 6.26601e-004  5969 10376  -2.29  -2.70  -0.71   -7.56   36.55   -8.34  6.000  2.000 0 1 0 2  3.750  3.750  21.99    4.00   303.00    0.00   1   35.00    15    0    0    27  40.0  1   1    3    0   0.000    0.000    0.000  1
  7   1    2  1 0 2    13  16   100   64   64     0.00000  33.04396 6.26601e-004  6159 10706  -2.29  -2.70  -0.71   -7.46   44.54   -8.66  6.000  2.000 0 1 0 2  3.750  3.750  21.99    4.00   346.00    0.00   1   35.00    15    0    0    27  40.0  1   1    3    0   0.000    0.000    0.000  1
  1   1    3  1 0 2    14  16   100   64   64     0.00000  33.04396 6.26601e-004  1033  1796  -2.29  -2.70  -0.71   -8.05   -3.42   -6.74  6.000  2.000 0 1 0 2  3.750  3.750  21.99    8.00    89.00    0.00   1   35.00    15    0    0    27  40.0  1   1    3    0   0.000    0.000    0.000  1
  2   1    3  1 0 2    15  16   100   64   64     0.00000  33.04396 6.26601e-004  2133  3708  -2.29  -2.70  -0.71   -7.95    4.57   -7.06  6.000  2.000 0 1 0 2  3.750  3.750  21.99    8.00   132.00    0.00   1   35.00    15    0    0    27  40.0  1   1    3    0   0.000    0.000    0.000  1
  3   1    3  1 0 2    16  16   100   64   64     0.00000  33.04396 6.26601e-004  3756  6529  -2.29  -2.70  -0.71   -7.86   12.57   -7.38  6.000  2.000 0 1 0 2  3.750  3.750  21.99    8.00   175.00    0.00   1   35.00    15    0    0    27  40.0  1   1    3    0   0.000    0.000    0.000  1
  4   1    3  1 0 2    17  16   100   64   64     0.00000  33.04396 6.26601e-004  4933  8574  -2.29  -2.70  -0.71   -7.76   20.56   -7.70  6.000  2.000 0 1 0 2  3.750  3.750  21.99    8.00   218.00    0.00   1   35.00    15    0    0    27  40.0  1   1    3    0   0.000    0.000    0.000  1
  5   1    3  1 0 2    18  16   100   64   64     0.00000  33.04396 6.26601e-004  4639  8064  -2.29  -2.70  -0.71   -7.66   28.55   -8.02  6.000  2.000 0 1 0 2  3.750  3.750  21.99    8.00   260.00    0.00   1   35.00    15    0    0    27  40.0  1   1    3    0   0.000    0.000    0.000  1
  6   1    3  1 0 2    19  16   100   64   64     0.00000  33.04396 6.26601e-004  5789 10063  -2.29  -2.70  -0.71   -7.56   36.55   -8.34  6.000  2.000 0 1 0 2  3.750  3.750  21.99    8.00   303.00    0.00   1   35.00    15    0    0    27  40.0  1   1    3    0   0.000    0.000    0.000  1
  7   1    3  1 0 2    20  16   100   64   64     0.00000  33.04396 6.26601e-004  6127 10650  -2.29  -2.70  -0.71   -7.46   44.54   -8.66  6.000  2.000 0 1 0 2  3.750  3.750  21.99    8.00   346.00    0.00   1   35.00    15    0    0    27  40.0  1   1    3    0   0.000    0.000    0.000  1
  1   1    4  1 0 2    21  16   100   64   64     0.00000  33.04396 6.26601e-004  1041  1809  -2.29  -2.70  -0.71   -8.05   -3.42   -6.74  6.000  2.000 0 1 0 2  3.750  3.750  21.99   12.00    89.00    0.00   1   35.00    15    0    0    27  40.0  1   1    3    0   0.000    0.000    0.000  1
  2   1    4  1 0 2    22  16   100   64   64     0.00000  33.04396 6.26601e-004  2190  3806  -2.29  -2.70  -0.71   -7.95    4.57   -7.06  6.000  2.000 0 1 0 2  3.750  3.750  21.99   12.00   132.00    0.00   1   35.00    15    0    0    27  40.0  1   1    3    0   0.000    0.000    0.000  1
  3   1    4  1 0 2    23  16   100   64   64     0.00000  33.04396 6.26601e-004  3711  6451  -2.29  -2.70  -0.71   -7.86   12.57   -7.38  6.000  2.000 0 1 0 2  3.750  3.750  21.99   12.00   175.00    0.00   1   35.00    15    0    0    27  40.0  1   1    3    0   0.000    0.000    0.000  1
  4   1    4  1 0 2    24  16   100   64   64     0.00000  33.04396 6.26601e-004  5019  8725  -2.29  -2.70  -0.71   -7.76   20.56   -7.70  6.000  2.000 0 1 0 2  3.750  3.750  21.99   12.00   218.00    0.00   1   35.00    15    0    0    27  40.0  1   1    3    0   0.000    0.000    0.000  1
  5   1    4  1 0 2    25  16   100   64   64     0.00000  33.04396 6.26601e-004  4569  7942  -2.29  -2.70  -0.71   -7.66   28.55   -8.02  6.000  2.000 0 1 0 2  3.750  3.750  21.99   12.00   260.00    0.00   1   35.00    15    0    0    27  40.0  1   1    3    0   0.000    0.000    0.000  1
  6   1    4  1 0 2    26  16   100   64   64     0.00000  33.04396 6.26601e-004  5777 10042  -2.29  -2.70  -0.71   -7.56   36.55   -8.34  6.000  2.000 0 1 0 2  3.750  3.750  21.99   12.00   303.00    0.00   1   35.00    15    0    0    27  40.0  1   1    3    0   0.000    0.000    0.000  1
  7   1    4  1 0 2    27  16   100   64   64     0.00000  33.04396 6.26601e-004  6224 10820  -2.29  -2.70  -0.71   -7.46   44.54   -8.66  6.000  2.000 0 1 0 2  3.750  3.750  21.99   12.00   346.00    0.00   1   35.00    15    0    0    27  40.0  1   1    3    0   0.000    0.000    0.000  1
  1   1    5  1 0 2    28  16   100   64   64     0.00000  33.04396 6.26601e-004   951  1653  -2.29  -2.70  -0.71   -8.05   -3.42   -6.74  6.000  2.000 0 1 0 2  3.750  3.750  21.99   16.00    89.00    0.00   1   35.00    15    0    0    27  40.0  1   1    3    0   0.000    0.000    0.000  1
  2   1    5  1 0 2    29  16   100   64   64     0.00000  33.04396 6.26601e-004  2134  3709  -2.29  -2.70  -0.71   -7.95    4.57   -7.06  6.000  2.000 0 1 0 2  3.750  3.750  21.99   16.00   132.00    0.00   1   35.00    15    0    0    27  40.0  1   1    3    0   0.000    0.000    0.000  1
  3   1    5  1 0 2    30  16   100   64   64     0.00000  33.04396 6.26601e-004  3648  6341  -2.29  -2.70  -0.71   -7.86   12.57   -7.38  6.000  2.000 0 1 0 2  3.750  3.750  21.99   16.00   175.00    0.00   1   35.00    15    0    0    27  40.0  1   1    3    0   0.000    0.000    0.000  1
  4   1    5  1 0 2    31  16   100   64   64     0.00000  33.04396 6.26601e-004  4926  8563  -2.29  -2.70  -0.71   -7.76   20.56   -7.70  6.000  2.000 0 1 0 2  3.750  3.750  21.99   16.00   218.00    0.00   1   35.00    15    0    0    27  40.0  1   1    3    0   0.000    0.000    0.000  1
  5   1    5  1 0 2    32  16   100   64   64     0.00000  33.04396 6.26601e-004  4518  7853  -2.29  -2.70  -0.71   -7.66   28.55   -8.02  6.000  2.000 0 1 0 2  3.750  3.750  21.99   16.00   260.00    0.00   1   35.00    15    0    0    27  40.0  1   1    3    0   0.000    0.000    0.000  1
  6   1    5  1 0 2    33  16   100   64   64     0.00000  33.04396 6.26601e-004  5887 10233  -2.29  -2.70  -0.71   -7.56   36.55   -8.34  6.000  2.000 0 1 0 2  3.750  3.750  21.99   16.00   303.00    0.00   1   35.00    15    0    0    27  40.0  1   1    3    0   0.000    0.000    0.000  1
  7   1    5  1 0 2    34  16   100   64   64     0.00000  33.04396 6.26601e-004  6088 10582  -2.29  -2.70  -0.71   -7.46   44.54   -8.66  6.000  2.000 0 1 0 2  3.750  3.750  21.99   16.00   346.00    0.00   1   35.00    15    0    0    27  40.0  1   1    3    0   0.000    0.000    0.000  1
  1   1    6  1 0 2    35  16   100   64   64     0.00000  33.04396 6.26601e-004  1064  1850  -2.29  -2.70  -0.71   -8.05   -3.42   -6.74  6.000  2.000 0 1 0 2  3.750  3.750  21.99   20.00    89.00    0.00   1   35.00    15    0    0    27  40.0  1   1    3    0   0.000    0.000    0.000  1
  2   1    6  1 0 2    36  16   100   64   64     0.00000  33.04396 6.26601e-004  2067  3592  -2.29  -2.70  -0.71   -7.95    4.57   -7.06  6.000  2.000 0 1 0 2  3.750  3.750  21.99   20.00   132.00    0.00   1   35.00    15    0    0    27  40.0  1   1    3    0   0.000    0.000    0.000  1
  3   1    6  1 0 2    37  16   100   64   64     0.00000  33.04396 6.26601e-004  3719  6465  -2.29  -2.70  -0.71   -7.86   12.57   -7.38  6.000  2.000 0 1 0 2  3.750  3.750  21.99   20.00   175.00    0.00   1   35.00    15    0    0    27  40.0  1   1    3    0   0.000    0.000    0.000  1
  4   1    6  1 0 2    38  16   100   64   64     0.00000  33.04396 6.26601e-004  4907  8530  -2.29  -2.70  -0.71   -7.76   20.56   -7.70  6.000  2.000 0 1 0 2  3.750  3.750  21.99   20.00   218.00    0.00   1   35.00    15    0    0    27  40.0  1   1    3    0   0.000    0.000    0.000  1
  5   1    6  1 0 2    39  16   100   64   64     0.00000  33.04396 6.26601e-004  4419  7682  -2.29  -2.70  -0.71   -7.66   28.55   -8.02  6.000  2.000 0 1 0 2  3.750  3.750  21.99   20.00   260.00    0.00   1   35.00    15    0    0    27  40.0  1   1    3    0   0.000    0.000    0.000  1
  6   1    6  1 0 2    40  16   100   64   64     0.00000  33.04396 6.26601e-004  5795 10073  -2.29  -2.70  -0.71   -7.56   36.55   -8.34  6.000  2.000 0 1 0 2  3.750  3.750  21.99   20.00   303.00    0.00   1   35.00    15    0    0    27  40.0  1   1    3    0   0.000    0.000    0.000  1
  7   1    6  1 0 2    41  16   100   64   64     0.00000  33.04396 6.26601e-004  6084 10576  -2.29  -2.70  -0.71   -7.46   44.54   -8.66  6.000  2.000 0 1 0 2  3.750  3.750  21.99   20.00   346.00    0.00   1   35.00    15    0    0    27  40.0  1   1    3    0   0.000    0.000    0.000  1
  1   1    7  1 0 2    42  16   100   64   64     0.00000  33.04396 6.26601e-004   990  1721  -2.29  -2.70  -0.71   -8.05   -3.42   -6.74  6.000  2.000 0 1 0 2  3.750  3.750  21.99   24.00    89.00    0.00   1   35.00    15    0    0    27  40.0  1   1    3    0   0.000    0.000    0.000  1
  2   1    7  1 0 2    43  16   100   64   64     0.00000  33.04396 6.26601e-004  2187  3801  -2.29  -2.70  -0.71   -7.95    4.57   -7.06  6.000  2.000 0 1 0 2  3.750  3.750  21.99   24.00   132.00    0.00   1   35.00    15    0    0    27  40.0  1   1    3    0   0.000    0.000    0.000  1
  3   1    7  1 0 2    44  16   100   64   64     0.00000  33.04396 6.26601e-004  3677  6392  -2.29  -2.70  -0.71   -7.86   12.57   -7.38  6.000  2.000 0 1 0 2  3.750  3.750  21.99   24.00   175.00    0.00   1   35.00    15    0    0    27  40.0  1   1    3    0   0.000    0.000    0.000  1
  4   1    7  1 0 2    45  16   100   64   64     0.00000  33.04396 6.26601e-004  4875  8474  -2.29  -2.70  -0.71   -7.76   20.56   -7.70  6.000  2.000 0 1 0 2  3.750  3.750  21.99   24.00   218.00    0.00   1   35.00    15    0    0    27  40.0  1   1    3    0   0.000    0.000    0.000  1
  5   1    7  1 0 2    46  16   100   64   64     0.00000  33.04396 6.26601e-004  4637  8061  -2.29  -2.70  -0.71   -7.66   28.55   -8.02  6.000  2.000 0 1 0 2  3.750  3.750  21.99   24.00   260.00    0.00   1   35.00    15    0    0    27  40.0  1   1    3    0   0.000    0.000    0.000  1
  6   1    7  1 0 2    47  16   100   64   64     0.00000  33.04396 6.26601e-004  5933 10314  -2.29  -2.70  -0.71   -7.56   36.55   -8.34  6.000  2.000 0 1 0 2  3.750  3.750  21.99   24.00   303.00    0.00   1   35.00    15    0    0    27  40.0  1   1    3    0   0.000    0.000    0.000  1
  7   1    7  1 0 2    48  16   100   64   64     0.00000  33.04396 6.26601e-004  6160 10709  -2.29  -2.70  -0.71   -7.46   44.54   -8.66  6.000  2.000 0 1 0 2  3.750  3.750  21.99   24.00   346.00    0.00   1   35.00    15    0    0    27  40.0  1   1    3    0   0.000    0.000    0.000  1
  1   1    8  1 0 2    49  16   100   64   64     0.00000  33.04396 6.26601e-004   948  1648  -2.29  -2.70  -0.71   -8.05   -3.42   -6.74  6.000  2.000 0 1 0 2  3.750  3.750  21.99   28.00    89.00    0.00   1   35.00    15    0    0    27  40.0  1   1    3    0   0.000    0.000    0.000  1
  2   1    8  1 0 2    50  16   100   64   64     0.00000  33.04396 6.26601e-004  2181  3791  -2.29  -2.70  -0.71   -7.95    4.57   -7.06  6.000  2.000 0 1 0 2  3.750  3.750  21.99   28.00   132.00    0.00   1   35.00    15    0    0    27  40.0  1   1    3    0   0.000    0.000    0.000  1
  3   1    8  1 0 2    51  16   100   64   64     0.00000  33.04396 6.26601e-004  3694  6421  -2.29  -2.70  -0.71   -7.86   12.57   -7.38  6.000  2.000 0 1 0 2  3.750  3.750  21.99   28.00   175.00    0.00   1   35.00    15    0    0    27  40.0  1   1    3    0   0.000    0.000    0.000  1
  4   1    8  1 0 2    52  16   100   64   64     0.00000  33.04396 6.26601e-004  4851  8433  -2.29  -2.70  -0.71   -7.76   20.56   -7.70  6.000  2.000 0 1 0 2  3.750  3.750  21.99   28.00   218.00    0.00   1   35.00    15    0    0    27  40.0  1   1    3    0   0.000    0.000    0.000  1
  5   1    8  1 0 2    53  16   100   64   64     0.00000  33.04396 6.26601e-004  4599  7994  -2.29  -2.70  -0.71   -7.66   28.55   -8.02  6.000  2.000 0 1 0 2  3.750  3.750  21.99   28.00   260.00    0.00   1   35.00    15    0    0    27  40.0  1   1    3    0   0.000    0.000    0.000  1
  6   1    8  1 0 2    54  16   100   64   64     0.00000  33.04396 6.26601e-004  5958 10356  -2.29  -2.70  -0.71   -7.56   36.55   -8.34  6.000  2.000 0 1 0 2  3.750  3.750  21.99   28.00   303.00    0.00   1   35.00    15    0    0    27  40.0  1   1    3    0   0.000    0.000    0.000  1
  7   1    8  1 0 2    55  16   100   64   64     0.00000  33.04396 6.26601e-004  6153 10697  -2.29  -2.70  -0.71   -7.46   44.54   -8.66  6.000  2.000 0 1 0 2  3.750  3.750  21.99   28.00   346.00    0.00   1   35.00    15    0    0    27  40.0  1   1    3    0   0.000    0.000    0.000  1
  1   1    9  1 0 2    56  16   100   64   64     0.00000  33.04396 6.26601e-004   952  1655  -2.29  -2.70  -0.71   -8.05   -3.42   -6.74  6.000  2.000 0 1 0 2  3.750  3.750  21.99   32.00    89.00    0.00   1   35.00    15    0    0    27  40.0  1   1    3    0   0.000    0.000    0.000  1
  2   1    9  1 0 2    57  16   100   64   64     0.00000  33.04396 6.26601e-004  2318  4030  -2.29  -2.70  -0.71   -7.95    4.57   -7.06  6.000  2.000 0 1 0 2  3.750  3.750  21.99   32.00   132.00    0.00   1   35.00    15    0    0    27  40.0  1   1    3    0   0.000    0.000    0.000  1
  3   1    9  1 0 2    58  16   100   64   64     0.00000  33.04396 6.26601e-004  3780  6570  -2.29  -2.70  -0.71   -7.86   12.57   -7.38  6.000  2.000 0 1 0 2  3.750  3.750  21.99   32.00   175.00    0.00   1   35.00    15    0    0    27  40.0  1   1    3    0   0.000    0.000    0.000  1
  4   1    9  1 0 2    59  16   100   64   64     0.00000  33.04396 6.26601e-004  4853  8437  -2.29  -2.70  -0.71   -7.76   20.56   -7.70  6.000  2.000 0 1 0 2  3.750  3.750  21.99   32.00   218.00    0.00   1   35.00    15    0    0    27  40.0  1   1    3    0   0.000    0.000    0.000  1
  5   1    9  1 0 2    60  16   100   64   64     0.00000  33.04396 6.26601e-004  4718  8201  -2.29  -2.70  -0.71   -7.66   28.55   -8.02  6.000  2.000 0 1 0 2  3.750  3.750  21.99   32.00   260.00    0.00   1   35.00    15    0    0    27  40.0  1   1    3    0   0.000    0.000    0.000  1
  6   1    9  1 0 2    61  16   100   64   64     0.00000  33.04396 6.26601e-004  5865 10196  -2.29  -2.70  -0.71   -7.56   36.55   -8.34  6.000  2.000 0 1 0 2  3.750  3.750  21.99   32.00   303.00    0.00   1   35.00    15    0    0    27  40.0  1   1    3    0   0.000    0.000    0.000  1
  7   1    9  1 0 2    62  16   100   64   64     0.00000  33.04396 6.26601e-004  6184 10750  -2.29  -2.70  -0.71   -7.46   44.54   -8.66  6.000  2.000 0 1 0 2  3.750  3.750  21.99   32.00   346.00    0.00   1   35.00    15    0    0    27  40.0  1   1    3    0   0.000    0.000    0.000  1
  1   1   10  1 0 2    63  16   100   64   64     0.00000  33.04396 6.26601e-004  1080  1878  -2.29  -2.70  -0.71   -8.05   -3.42   -6.74  6.000  2.000 0 1 0 2  3.750  3.750  21.99   36.00    89.00    0.00   1   35.00    15    0    0    27  40.0  1   1    3    0   0.000    0.000    0.000  1
  2   1   10  1 0 2    64  16   100   64   64     0.00000  33.04396 6.26601e-004  2175  3781  -2.29  -2.70  -0.71   -7.95    4.57   -7.06  6.000  2.000 0 1 0 2  3.750  3.750  21.99   36.00   132.00    0.00   1   35.00    15    0    0    27  40.0  1   1    3    0   0.000    0.000    0.000  1
  3   1   10  1 0 2    65  16   100   64   64     0.00000  33.04396 6.26601e-004  3690  6414  -2.29  -2.70  -0.71   -7.86   12.57   -7.38  6.000  2.000 0 1 0 2  3.750  3.750  21.99   36.00   175.00    0.00   1   35.00    15    0    0    27  40.0  1   1    3    0   0.000    0.000    0.000  1
  4   1   10  1 0 2    66  16   100   64   64     0.00000  33.04396 6.26601e-004  4898  8514  -2.29  -2.70  -0.71   -7.76   20.56   -7.70  6.000  2.000 0 1 0 2  3.750  3.750  21.99   36.00   218.00    0.00   1   35.00    15    0    0    27  40.0  1   1    3    0   0.000    0.000    0.000  1
  5   1   10  1 0 2    67  16   100   64   64     0.00000  33.04396 6.26601e-004  4561  7928  -2.29  -2.70  -0.71   -7.66   28.55   -8.02  6.000  2.000 0 1 0 2  3.750  3.750  21.99   36.00   260.00    0.00   1   35.00    15    0    0    27  40.0  1   1    3    0   0.000    0.000    0.000  1
  6   1   10  1 0 2    68  16   100   64   64     0.00000  33.04396 6.26601e-004  5793 10069  -2.29  -2.70  -0.71   -7.56   36.55   -8.34  6.000  2.000 0 1 0 2  3.750  3.750  21.99   36.00   303.00    0.00   1   35.00    15    0    0    27  40.0  1   1    3    0   0.000    0.000    0.000  1
  7   1   10  1 0 2    69  16   100   64   64     0.00000  33.04396 6.26601e-004  6185 10752  -2.29  -2.70  -0.71   -7.46   44.54   -8.66  6.000  2.000 0 1 0 2  3.750  3.750  21.99   36.00   346.00    0.00   1   35.00    15    0    0    27  40.0  1   1    3    0   0.000    0.000    0.000  1
  1   1   11  1 0 2    70  16   100   64   64     0.00000  33.04396 6.26601e-004   946  1645  -2.29  -2.70  -0.71   -8.05   -3.42   -6.74  6.000  2.000 0 1 0 2  3.750  3.750  21.99   40.00    89.00    0.00   1   35.00    15    0    0    27  40.0  1   1    3    0   0.000    0.000    0.000  1
  2   1   11  1 0 2    71  16   100   64   64     0.00000  33.04396 6.26601e-004  2094  3639  -2.29  -2.70  -0.71   -7.95    4.57   -7.06  6.000  2.000 0 1 0 2  3.750  3.750  21.99   40.00   132.00    0.00   1   35.00    15    0    0    27  40.0  1   1    3    0   0.000    0.000    0.000  1
  3   1   11  1 0 2    72  16   100   64   64     0.00000  33.04396 6.26601e-004  3739  6500  -2.29  -2.70  -0.71   -7.86   12.57   -7.38  6.000  2.000 0 1 0 2  3.750  3.750  21.99   40.00   175.00    0.00   1   35.00    15    0    0    27  40.0  1   1    3    0   0.000    0.000    0.000  1
  4   1   11  1 0 2    73  16   100   64   64     0.00000  33.04396 6.26601e-004  4886  8493  -2.29  -2.70  -0.71   -7.76   20.56   -7.70  6.000  2.000 0 1 0 2  3.750  3.750  21.99   40.00   218.00    0.00   1   35.00    15    0    0    27  40.0  1   1    3    0   0.000    0.000    0.000  1
  5   1   11  1 0 2    74  16   100   64   64     0.00000  33.04396 6.26601e-004  4514  7847  -2.29  -2.70  -0.71   -7.66   28.55   -8.02  6.000  2.000 0 1 0 2  3.750  3.750  21.99   40.00   260.00    0.00   1   35.00    15    0    0    27  40.0  1   1    3    0   0.000    0.000    0.000  1
  6   1   11  1 0 2    75  16   100   64   64     0.00000  33.04396 6.26601e-004  5816 10111  -2.29  -2.70  -0.71   -7.56   36.55   -8.34  6.000  2.000 0 1 0 2  3.750  3.750  21.99   40.00   303.00    0.00   1   35.00    15    0    0    27  40.0  1   1    3    0   0.000    0.000    0.000  1
  7   1   11  1 0 2    76  16   100   64   64     0.00000  33.04396 6.26601e-004  6097 10598  -2.29  -2.70  -0.71   -7.46   44.54   -8.66  6.000  2.000 0 1 0 2  3.750  3.750  21.99   40.00   346.00    0.00   1   35.00    15    0    0    27  40.0  1   1    3    0   0.000    0.000    0.000  1
  1   1   12  1 0 2    77  16   100   64   64     0.00000  33.04396 6.26601e-004  1047  1820  -2.29  -2.70  -0.71   -8.05   -3.42   -6.74  6.000  2.000 0 1 0 2  3.750  3.750  21.99   44.00    89.00    0.00   1   35.00    15    0    0    27  40.0  1   1    3    0   0.000    0.000    0.000  1
  2   1   12  1 0 2    78  16   100   64   64     0.00000  33.04396 6.26601e-004  2145  3730  -2.29  -2.70  -0.71   -7.95    4.57   -7.06  6.000  2.000 0 1 0 2  3.750  3.750  21.99   44.00   132.00    0.00   1   35.00    15    0    0    27  40.0  1   1    3    0   0.000    0.000    0.000  1
  3   1   12  1 0 2    79  16   100   64   64     0.00000  33.04396 6.26601e-004  3730  6484  -2.29  -2.70  -0.71   -7.86   12.57   -7.38  6.000  2.000 0 1 0 2  3.750  3.750  21.99   44.00   175.00    0.00   1   35.00    15    0    0    27  40.0  1   1    3    0   0.000    0.000    0.000  1
  4   1   12  1 0 2    80  16   100   64   64     0.00000  33.04396 6.26601e-004  4900  8517  -2.29  -2.70  -0.71   -7.76   20.56   -7.70  6.000  2.000 0 1 0 2  3.750  3.750  21.99   44.00   218.00    0.00   1   35.00    15    0    0    27  40.0  1   1    3    0   0.000    0.000    0.000  1
  5   1   12  1 0 2    81  16   100   64   64     0.00000  33.04396 6.26601e-004  4536  7885  -2.29  -2.70  -0.71   -7.66   28.55   -8.02  6.000  2.000 0 1 0 2  3.750  3.750  21.99   44.00   260.00    0.00   1   35.00    15    0    0    27  40.0  1   1    3    0   0.000    0.000    0.000  1
  6   1   12  1 0 2    82  16   100   64   64     0.00000  33.04396 6.26601e-004  5794 10071  -2.29  -2.70  -0.71   -7.56   36.55   -8.34  6.000  2.000 0 1 0 2  3.750  3.750  21.99   44.00   303.00    0.00   1   35.00    15    0    0    27  40.0  1   1    3    0   0.000    0.000    0.000  1
  7   1   12  1 0 2    83  16   100   64   64     0.00000  33.04396 6.26601e-004  6089 10584  -2.29  -2.70  -0.71   -7.46   44.54   -8.66  6.000  2.000 0 1 0 2  3.750  3.750  21.99   44.00   346.00    0.00   1   35.00    15    0    0    27  40.0  1   1    3    0   0.000    0.000    0.000  1
