# === DATA DESCRIPTION FILE ======================================================
#
# CAUTION - Investigational device.
# Limited by Federal Law to investigational use.
#
# Dataset name: E:\Export\ivz_4_1
#
# CLINICAL TRYOUT             Research image export tool     V4.1
#
# === GENERAL INFORMATION ========================================================
#
.    Patient name                       :   ivz
.    Examination name                   :   qasl/rpi
.    Protocol name                      :   Q-ASL SENSE
.    Examination date/time              :   2008.01.17 / 19:07:20
.    Series Type                        :   Image   MRSERIES
.    Acquisition nr                     :   4
.    Reconstruction nr                  :   1
.    Scan Duration [sec]                :   352
.    Max. number of cardiac phases      :   13
.    Max. number of echoes              :   1
.    Max. number of slices/locations    :   7
.    Max. number of dynamics            :   84
.    Max. number of mixes               :   1
.    Patient position                   :   Head First Supine
.    Preparation direction              :   Anterior-Posterior
.    Technique                          :   PASL-QA-M-Q-CA-PPS-Q1;0.64-NBS
.    Scan resolution  (x, y)            :   64  62
.    Scan mode                          :   MS
.    Repetition time [ms]               :   300.000  
.    FOV (ap,fh,rl) [mm]                :   240.000  54.000  240.000
.    Water Fat shift [pixels]           :   12.396
.    Angulation midslice(ap,fh,rl)[degr]:   -0.747  1.409  -4.826
.    Off Centre midslice(ap,fh,rl) [mm] :   -1.762  42.772  2.733
.    Flow compensation <0=no 1=yes> ?   :   1
.    Presaturation     <0=no 1=yes> ?   :   1
.    Phase encoding velocity [cm/sec]   :   0.000000  0.000000  0.000000
.    MTC               <0=no 1=yes> ?   :   0
.    SPIR              <0=no 1=yes> ?   :   0
.    EPI factor        <0,1=no EPI>     :   27
.    Dynamic scan      <0=no 1=yes> ?   :   1
.    Diffusion         <0=no 1=yes> ?   :   0
.    Diffusion echo time [ms]           :   0.0000
.    Max. number of diffusion values    :   1
.    Max. number of gradient orients    :   1
#
# === PIXEL VALUES =============================================================
#  PV = pixel value in REC file, FP = floating point value, DV = displayed value on console
#  RS = rescale slope,           RI = rescale intercept,    SS = scale slope
#  DV = PV * RS + RI             FP = DV / (RS * SS)
#
# === IMAGE INFORMATION DEFINITION =============================================
#  The rest of this file contains ONE line per image, this line contains the following information:
#
#  slice number                             (integer)
#  echo number                              (integer)
#  dynamic scan number                      (integer)
#  cardiac phase number                     (integer)
#  image_type_mr                            (integer)
#  scanning sequence                        (integer)
#  index in REC file (in images)            (integer)
#  image pixel size (in bits)               (integer)
#  scan percentage                          (integer)
#  recon resolution (x y)                   (2*integer)
#  rescale intercept                        (float)
#  rescale slope                            (float)
#  scale slope                              (float)
#  window center                            (integer)
#  window width                             (integer)
#  image angulation (ap,fh,rl in degrees )  (3*float)
#  image offcentre (ap,fh,rl in mm )        (3*float)
#  slice thickness (in mm )                 (float)
#  slice gap (in mm )                       (float)
#  image_display_orientation                (integer)
#  slice orientation ( TRA/SAG/COR )        (integer)
#  fmri_status_indication                   (integer)
#  image_type_ed_es  (end diast/end syst)   (integer)
#  pixel spacing (x,y) (in mm)              (2*float)
#  echo_time                                (float)
#  dyn_scan_begin_time                      (float)
#  trigger_time                             (float)
#  diffusion_b_factor                       (float)
#  number of averages                       (integer)
#  image_flip_angle (in degrees)            (float)
#  cardiac frequency   (bpm)                (integer)
#  minimum RR-interval (in ms)              (integer)
#  maximum RR-interval (in ms)              (integer)
#  TURBO factor  <0=no turbo>               (integer)
#  Inversion delay (in ms)                  (float)
#  diffusion b value number    (imagekey!)  (integer)
#  gradient orientation number (imagekey!)  (integer)
#  contrast type                            (string)
#  diffusion anisotropy type                (string)
#  diffusion (ap, fh, rl)                   (3*float)
#
# === IMAGE INFORMATION ==========================================================
# sl ec  dyn ph ty    idx pix scan%  rec size (re)scale                        window      angulation           offcentre               thick  gap    info    spacing       echo  dtime   ttime   diff    avg flip    freq  RR-int    turbo delay b grad cont anis diffusion

  1   1    1  1 0 2     0  16   100   64   64   0.00000  32.55849 7.67599e-004   886  1540  -0.75   1.41  -4.83   -3.78   18.86    3.05  6.000  2.000 0 1 0 2  3.750  3.750 22.00    0.00   89.00    0.00   1   35.00    15    0    0    27  40.0 1    1    3    0    0.000     0.000     0.000 
  2   1    1  1 0 2     1  16   100   64   64   0.00000  32.55849 7.67599e-004  1575  2738  -0.75   1.41  -4.83   -3.11   26.83    2.94  6.000  2.000 0 1 0 2  3.750  3.750 22.00    0.00  131.00    0.00   1   35.00    15    0    0    27  40.0 1    1    3    0    0.000     0.000     0.000 
  3   1    1  1 0 2     2  16   100   64   64   0.00000  32.55849 7.67599e-004  2362  4106  -0.75   1.41  -4.83   -2.44   34.80    2.84  6.000  2.000 0 1 0 2  3.750  3.750 22.00    0.00  173.00    0.00   1   35.00    15    0    0    27  40.0 1    1    3    0    0.000     0.000     0.000 
  4   1    1  1 0 2     3  16   100   64   64   0.00000  32.55849 7.67599e-004  3258  5663  -0.75   1.41  -4.83   -1.76   42.77    2.73  6.000  2.000 0 1 0 2  3.750  3.750 22.00    0.00  215.00    0.00   1   35.00    15    0    0    27  40.0 1    1    3    0    0.000     0.000     0.000 
  5   1    1  1 0 2     4  16   100   64   64   0.00000  32.55849 7.67599e-004  4177  7262  -0.75   1.41  -4.83   -1.09   50.74    2.63  6.000  2.000 0 1 0 2  3.750  3.750 22.00    0.00  258.00    0.00   1   35.00    15    0    0    27  40.0 1    1    3    0    0.000     0.000     0.000 
  6   1    1  1 0 2     5  16   100   64   64   0.00000  32.55849 7.67599e-004  4141  7199  -0.75   1.41  -4.83   -0.42   58.71    2.52  6.000  2.000 0 1 0 2  3.750  3.750 22.00    0.00  300.00    0.00   1   35.00    15    0    0    27  40.0 1    1    3    0    0.000     0.000     0.000 
  7   1    1  1 0 2     6  16   100   64   64   0.00000  32.55849 7.67599e-004  5133  8923  -0.75   1.41  -4.83    0.26   66.68    2.42  6.000  2.000 0 1 0 2  3.750  3.750 22.00    0.00  342.00    0.00   1   35.00    15    0    0    27  40.0 1    1    3    0    0.000     0.000     0.000 
  1   1    2  1 0 2     7  16   100   64   64   0.00000  32.55849 7.67599e-004   786  1366  -0.75   1.41  -4.83   -3.78   18.86    3.05  6.000  2.000 0 1 0 2  3.750  3.750 22.00    4.00   89.00    0.00   1   35.00    15    0    0    27  40.0 1    1    3    0    0.000     0.000     0.000 
  2   1    2  1 0 2     8  16   100   64   64   0.00000  32.55849 7.67599e-004  1582  2751  -0.75   1.41  -4.83   -3.11   26.83    2.94  6.000  2.000 0 1 0 2  3.750  3.750 22.00    4.00  131.00    0.00   1   35.00    15    0    0    27  40.0 1    1    3    0    0.000     0.000     0.000 
  3   1    2  1 0 2     9  16   100   64   64   0.00000  32.55849 7.67599e-004  2375  4128  -0.75   1.41  -4.83   -2.44   34.80    2.84  6.000  2.000 0 1 0 2  3.750  3.750 22.00    4.00  173.00    0.00   1   35.00    15    0    0    27  40.0 1    1    3    0    0.000     0.000     0.000 
  4   1    2  1 0 2    10  16   100   64   64   0.00000  32.55849 7.67599e-004  3274  5691  -0.75   1.41  -4.83   -1.76   42.77    2.73  6.000  2.000 0 1 0 2  3.750  3.750 22.00    4.00  215.00    0.00   1   35.00    15    0    0    27  40.0 1    1    3    0    0.000     0.000     0.000 
  5   1    2  1 0 2    11  16   100   64   64   0.00000  32.55849 7.67599e-004  4266  7416  -0.75   1.41  -4.83   -1.09   50.74    2.63  6.000  2.000 0 1 0 2  3.750  3.750 22.00    4.00  258.00    0.00   1   35.00    15    0    0    27  40.0 1    1    3    0    0.000     0.000     0.000 
  6   1    2  1 0 2    12  16   100   64   64   0.00000  32.55849 7.67599e-004  4170  7250  -0.75   1.41  -4.83   -0.42   58.71    2.52  6.000  2.000 0 1 0 2  3.750  3.750 22.00    4.00  300.00    0.00   1   35.00    15    0    0    27  40.0 1    1    3    0    0.000     0.000     0.000 
  7   1    2  1 0 2    13  16   100   64   64   0.00000  32.55849 7.67599e-004  4976  8650  -0.75   1.41  -4.83    0.26   66.68    2.42  6.000  2.000 0 1 0 2  3.750  3.750 22.00    4.00  342.00    0.00   1   35.00    15    0    0    27  40.0 1    1    3    0    0.000     0.000     0.000 
  1   1    3  1 0 2    14  16   100   64   64   0.00000  32.55849 7.67599e-004   822  1428  -0.75   1.41  -4.83   -3.78   18.86    3.05  6.000  2.000 0 1 0 2  3.750  3.750 22.00    8.00   89.00    0.00   1   35.00    15    0    0    27  40.0 1    1    3    0    0.000     0.000     0.000 
  2   1    3  1 0 2    15  16   100   64   64   0.00000  32.55849 7.67599e-004  1527  2655  -0.75   1.41  -4.83   -3.11   26.83    2.94  6.000  2.000 0 1 0 2  3.750  3.750 22.00    8.00  131.00    0.00   1   35.00    15    0    0    27  40.0 1    1    3    0    0.000     0.000     0.000 
  3   1    3  1 0 2    16  16   100   64   64   0.00000  32.55849 7.67599e-004  2458  4273  -0.75   1.41  -4.83   -2.44   34.80    2.84  6.000  2.000 0 1 0 2  3.750  3.750 22.00    8.00  173.00    0.00   1   35.00    15    0    0    27  40.0 1    1    3    0    0.000     0.000     0.000 
  4   1    3  1 0 2    17  16   100   64   64   0.00000  32.55849 7.67599e-004  3313  5760  -0.75   1.41  -4.83   -1.76   42.77    2.73  6.000  2.000 0 1 0 2  3.750  3.750 22.00    8.00  215.00    0.00   1   35.00    15    0    0    27  40.0 1    1    3    0    0.000     0.000     0.000 
  5   1    3  1 0 2    18  16   100   64   64   0.00000  32.55849 7.67599e-004  4211  7320  -0.75   1.41  -4.83   -1.09   50.74    2.63  6.000  2.000 0 1 0 2  3.750  3.750 22.00    8.00  258.00    0.00   1   35.00    15    0    0    27  40.0 1    1    3    0    0.000     0.000     0.000 
  6   1    3  1 0 2    19  16   100   64   64   0.00000  32.55849 7.67599e-004  4169  7247  -0.75   1.41  -4.83   -0.42   58.71    2.52  6.000  2.000 0 1 0 2  3.750  3.750 22.00    8.00  300.00    0.00   1   35.00    15    0    0    27  40.0 1    1    3    0    0.000     0.000     0.000 
  7   1    3  1 0 2    20  16   100   64   64   0.00000  32.55849 7.67599e-004  5135  8926  -0.75   1.41  -4.83    0.26   66.68    2.42  6.000  2.000 0 1 0 2  3.750  3.750 22.00    8.00  342.00    0.00   1   35.00    15    0    0    27  40.0 1    1    3    0    0.000     0.000     0.000 
  1   1    4  1 0 2    21  16   100   64   64   0.00000  32.55849 7.67599e-004   772  1343  -0.75   1.41  -4.83   -3.78   18.86    3.05  6.000  2.000 0 1 0 2  3.750  3.750 22.00   12.00   89.00    0.00   1   35.00    15    0    0    27  40.0 1    1    3    0    0.000     0.000     0.000 
  2   1    4  1 0 2    22  16   100   64   64   0.00000  32.55849 7.67599e-004  1591  2766  -0.75   1.41  -4.83   -3.11   26.83    2.94  6.000  2.000 0 1 0 2  3.750  3.750 22.00   12.00  131.00    0.00   1   35.00    15    0    0    27  40.0 1    1    3    0    0.000     0.000     0.000 
  3   1    4  1 0 2    23  16   100   64   64   0.00000  32.55849 7.67599e-004  2410  4190  -0.75   1.41  -4.83   -2.44   34.80    2.84  6.000  2.000 0 1 0 2  3.750  3.750 22.00   12.00  173.00    0.00   1   35.00    15    0    0    27  40.0 1    1    3    0    0.000     0.000     0.000 
  4   1    4  1 0 2    24  16   100   64   64   0.00000  32.55849 7.67599e-004  3338  5803  -0.75   1.41  -4.83   -1.76   42.77    2.73  6.000  2.000 0 1 0 2  3.750  3.750 22.00   12.00  215.00    0.00   1   35.00    15    0    0    27  40.0 1    1    3    0    0.000     0.000     0.000 
  5   1    4  1 0 2    25  16   100   64   64   0.00000  32.55849 7.67599e-004  4191  7286  -0.75   1.41  -4.83   -1.09   50.74    2.63  6.000  2.000 0 1 0 2  3.750  3.750 22.00   12.00  258.00    0.00   1   35.00    15    0    0    27  40.0 1    1    3    0    0.000     0.000     0.000 
  6   1    4  1 0 2    26  16   100   64   64   0.00000  32.55849 7.67599e-004  4196  7293  -0.75   1.41  -4.83   -0.42   58.71    2.52  6.000  2.000 0 1 0 2  3.750  3.750 22.00   12.00  300.00    0.00   1   35.00    15    0    0    27  40.0 1    1    3    0    0.000     0.000     0.000 
  7   1    4  1 0 2    27  16   100   64   64   0.00000  32.55849 7.67599e-004  5160  8969  -0.75   1.41  -4.83    0.26   66.68    2.42  6.000  2.000 0 1 0 2  3.750  3.750 22.00   12.00  342.00    0.00   1   35.00    15    0    0    27  40.0 1    1    3    0    0.000     0.000     0.000 
  1   1    5  1 0 2    28  16   100   64   64   0.00000  32.55849 7.67599e-004   820  1426  -0.75   1.41  -4.83   -3.78   18.86    3.05  6.000  2.000 0 1 0 2  3.750  3.750 22.00   16.00   89.00    0.00   1   35.00    15    0    0    27  40.0 1    1    3    0    0.000     0.000     0.000 
  2   1    5  1 0 2    29  16   100   64   64   0.00000  32.55849 7.67599e-004  1526  2653  -0.75   1.41  -4.83   -3.11   26.83    2.94  6.000  2.000 0 1 0 2  3.750  3.750 22.00   16.00  131.00    0.00   1   35.00    15    0    0    27  40.0 1    1    3    0    0.000     0.000     0.000 
  3   1    5  1 0 2    30  16   100   64   64   0.00000  32.55849 7.67599e-004  2363  4108  -0.75   1.41  -4.83   -2.44   34.80    2.84  6.000  2.000 0 1 0 2  3.750  3.750 22.00   16.00  173.00    0.00   1   35.00    15    0    0    27  40.0 1    1    3    0    0.000     0.000     0.000 
  4   1    5  1 0 2    31  16   100   64   64   0.00000  32.55849 7.67599e-004  3325  5781  -0.75   1.41  -4.83   -1.76   42.77    2.73  6.000  2.000 0 1 0 2  3.750  3.750 22.00   16.00  215.00    0.00   1   35.00    15    0    0    27  40.0 1    1    3    0    0.000     0.000     0.000 
  5   1    5  1 0 2    32  16   100   64   64   0.00000  32.55849 7.67599e-004  4180  7266  -0.75   1.41  -4.83   -1.09   50.74    2.63  6.000  2.000 0 1 0 2  3.750  3.750 22.00   16.00  258.00    0.00   1   35.00    15    0    0    27  40.0 1    1    3    0    0.000     0.000     0.000 
  6   1    5  1 0 2    33  16   100   64   64   0.00000  32.55849 7.67599e-004  4218  7333  -0.75   1.41  -4.83   -0.42   58.71    2.52  6.000  2.000 0 1 0 2  3.750  3.750 22.00   16.00  300.00    0.00   1   35.00    15    0    0    27  40.0 1    1    3    0    0.000     0.000     0.000 
  7   1    5  1 0 2    34  16   100   64   64   0.00000  32.55849 7.67599e-004  4965  8631  -0.75   1.41  -4.83    0.26   66.68    2.42  6.000  2.000 0 1 0 2  3.750  3.750 22.00   16.00  342.00    0.00   1   35.00    15    0    0    27  40.0 1    1    3    0    0.000     0.000     0.000 
  1   1    6  1 0 2    35  16   100   64   64   0.00000  32.55849 7.67599e-004   758  1318  -0.75   1.41  -4.83   -3.78   18.86    3.05  6.000  2.000 0 1 0 2  3.750  3.750 22.00   20.00   89.00    0.00   1   35.00    15    0    0    27  40.0 1    1    3    0    0.000     0.000     0.000 
  2   1    6  1 0 2    36  16   100   64   64   0.00000  32.55849 7.67599e-004  1509  2623  -0.75   1.41  -4.83   -3.11   26.83    2.94  6.000  2.000 0 1 0 2  3.750  3.750 22.00   20.00  131.00    0.00   1   35.00    15    0    0    27  40.0 1    1    3    0    0.000     0.000     0.000 
  3   1    6  1 0 2    37  16   100   64   64   0.00000  32.55849 7.67599e-004  2512  4366  -0.75   1.41  -4.83   -2.44   34.80    2.84  6.000  2.000 0 1 0 2  3.750  3.750 22.00   20.00  173.00    0.00   1   35.00    15    0    0    27  40.0 1    1    3    0    0.000     0.000     0.000 
  4   1    6  1 0 2    38  16   100   64   64   0.00000  32.55849 7.67599e-004  3190  5546  -0.75   1.41  -4.83   -1.76   42.77    2.73  6.000  2.000 0 1 0 2  3.750  3.750 22.00   20.00  215.00    0.00   1   35.00    15    0    0    27  40.0 1    1    3    0    0.000     0.000     0.000 
  5   1    6  1 0 2    39  16   100   64   64   0.00000  32.55849 7.67599e-004  4187  7278  -0.75   1.41  -4.83   -1.09   50.74    2.63  6.000  2.000 0 1 0 2  3.750  3.750 22.00   20.00  258.00    0.00   1   35.00    15    0    0    27  40.0 1    1    3    0    0.000     0.000     0.000 
  6   1    6  1 0 2    40  16   100   64   64   0.00000  32.55849 7.67599e-004  4174  7255  -0.75   1.41  -4.83   -0.42   58.71    2.52  6.000  2.000 0 1 0 2  3.750  3.750 22.00   20.00  300.00    0.00   1   35.00    15    0    0    27  40.0 1    1    3    0    0.000     0.000     0.000 
  7   1    6  1 0 2    41  16   100   64   64   0.00000  32.55849 7.67599e-004  5045  8770  -0.75   1.41  -4.83    0.26   66.68    2.42  6.000  2.000 0 1 0 2  3.750  3.750 22.00   20.00  342.00    0.00   1   35.00    15    0    0    27  40.0 1    1    3    0    0.000     0.000     0.000 
  1   1    7  1 0 2    42  16   100   64   64   0.00000  32.55849 7.67599e-004   880  1530  -0.75   1.41  -4.83   -3.78   18.86    3.05  6.000  2.000 0 1 0 2  3.750  3.750 22.00   24.00   89.00    0.00   1   35.00    15    0    0    27  40.0 1    1    3    0    0.000     0.000     0.000 
  2   1    7  1 0 2    43  16   100   64   64   0.00000  32.55849 7.67599e-004  1464  2545  -0.75   1.41  -4.83   -3.11   26.83    2.94  6.000  2.000 0 1 0 2  3.750  3.750 22.00   24.00  131.00    0.00   1   35.00    15    0    0    27  40.0 1    1    3    0    0.000     0.000     0.000 
  3   1    7  1 0 2    44  16   100   64   64   0.00000  32.55849 7.67599e-004  2408  4185  -0.75   1.41  -4.83   -2.44   34.80    2.84  6.000  2.000 0 1 0 2  3.750  3.750 22.00   24.00  173.00    0.00   1   35.00    15    0    0    27  40.0 1    1    3    0    0.000     0.000     0.000 
  4   1    7  1 0 2    45  16   100   64   64   0.00000  32.55849 7.67599e-004  3244  5638  -0.75   1.41  -4.83   -1.76   42.77    2.73  6.000  2.000 0 1 0 2  3.750  3.750 22.00   24.00  215.00    0.00   1   35.00    15    0    0    27  40.0 1    1    3    0    0.000     0.000     0.000 
  5   1    7  1 0 2    46  16   100   64   64   0.00000  32.55849 7.67599e-004  4216  7328  -0.75   1.41  -4.83   -1.09   50.74    2.63  6.000  2.000 0 1 0 2  3.750  3.750 22.00   24.00  258.00    0.00   1   35.00    15    0    0    27  40.0 1    1    3    0    0.000     0.000     0.000 
  6   1    7  1 0 2    47  16   100   64   64   0.00000  32.55849 7.67599e-004  4305  7483  -0.75   1.41  -4.83   -0.42   58.71    2.52  6.000  2.000 0 1 0 2  3.750  3.750 22.00   24.00  300.00    0.00   1   35.00    15    0    0    27  40.0 1    1    3    0    0.000     0.000     0.000 
  7   1    7  1 0 2    48  16   100   64   64   0.00000  32.55849 7.67599e-004  4806  8353  -0.75   1.41  -4.83    0.26   66.68    2.42  6.000  2.000 0 1 0 2  3.750  3.750 22.00   24.00  342.00    0.00   1   35.00    15    0    0    27  40.0 1    1    3    0    0.000     0.000     0.000 
  1   1    8  1 0 2    49  16   100   64   64   0.00000  32.55849 7.67599e-004   810  1407  -0.75   1.41  -4.83   -3.78   18.86    3.05  6.000  2.000 0 1 0 2  3.750  3.750 22.00   28.00   89.00    0.00   1   35.00    15    0    0    27  40.0 1    1    3    0    0.000     0.000     0.000 
  2   1    8  1 0 2    50  16   100   64   64   0.00000  32.55849 7.67599e-004  1530  2660  -0.75   1.41  -4.83   -3.11   26.83    2.94  6.000  2.000 0 1 0 2  3.750  3.750 22.00   28.00  131.00    0.00   1   35.00    15    0    0    27  40.0 1    1    3    0    0.000     0.000     0.000 
  3   1    8  1 0 2    51  16   100   64   64   0.00000  32.55849 7.67599e-004  2417  4201  -0.75   1.41  -4.83   -2.44   34.80    2.84  6.000  2.000 0 1 0 2  3.750  3.750 22.00   28.00  173.00    0.00   1   35.00    15    0    0    27  40.0 1    1    3    0    0.000     0.000     0.000 
  4   1    8  1 0 2    52  16   100   64   64   0.00000  32.55849 7.67599e-004  3309  5752  -0.75   1.41  -4.83   -1.76   42.77    2.73  6.000  2.000 0 1 0 2  3.750  3.750 22.00   28.00  215.00    0.00   1   35.00    15    0    0    27  40.0 1    1    3    0    0.000     0.000     0.000 
  5   1    8  1 0 2    53  16   100   64   64   0.00000  32.55849 7.67599e-004  4274  7430  -0.75   1.41  -4.83   -1.09   50.74    2.63  6.000  2.000 0 1 0 2  3.750  3.750 22.00   28.00  258.00    0.00   1   35.00    15    0    0    27  40.0 1    1    3    0    0.000     0.000     0.000 
  6   1    8  1 0 2    54  16   100   64   64   0.00000  32.55849 7.67599e-004  4365  7588  -0.75   1.41  -4.83   -0.42   58.71    2.52  6.000  2.000 0 1 0 2  3.750  3.750 22.00   28.00  300.00    0.00   1   35.00    15    0    0    27  40.0 1    1    3    0    0.000     0.000     0.000 
  7   1    8  1 0 2    55  16   100   64   64   0.00000  32.55849 7.67599e-004  4737  8235  -0.75   1.41  -4.83    0.26   66.68    2.42  6.000  2.000 0 1 0 2  3.750  3.750 22.00   28.00  342.00    0.00   1   35.00    15    0    0    27  40.0 1    1    3    0    0.000     0.000     0.000 
  1   1    9  1 0 2    56  16   100   64   64   0.00000  32.55849 7.67599e-004   783  1362  -0.75   1.41  -4.83   -3.78   18.86    3.05  6.000  2.000 0 1 0 2  3.750  3.750 22.00   32.00   89.00    0.00   1   35.00    15    0    0    27  40.0 1    1    3    0    0.000     0.000     0.000 
  2   1    9  1 0 2    57  16   100   64   64   0.00000  32.55849 7.67599e-004  1481  2574  -0.75   1.41  -4.83   -3.11   26.83    2.94  6.000  2.000 0 1 0 2  3.750  3.750 22.00   32.00  131.00    0.00   1   35.00    15    0    0    27  40.0 1    1    3    0    0.000     0.000     0.000 
  3   1    9  1 0 2    58  16   100   64   64   0.00000  32.55849 7.67599e-004  2418  4203  -0.75   1.41  -4.83   -2.44   34.80    2.84  6.000  2.000 0 1 0 2  3.750  3.750 22.00   32.00  173.00    0.00   1   35.00    15    0    0    27  40.0 1    1    3    0    0.000     0.000     0.000 
  4   1    9  1 0 2    59  16   100   64   64   0.00000  32.55849 7.67599e-004  3290  5720  -0.75   1.41  -4.83   -1.76   42.77    2.73  6.000  2.000 0 1 0 2  3.750  3.750 22.00   32.00  215.00    0.00   1   35.00    15    0    0    27  40.0 1    1    3    0    0.000     0.000     0.000 
  5   1    9  1 0 2    60  16   100   64   64   0.00000  32.55849 7.67599e-004  4249  7387  -0.75   1.41  -4.83   -1.09   50.74    2.63  6.000  2.000 0 1 0 2  3.750  3.750 22.00   32.00  258.00    0.00   1   35.00    15    0    0    27  40.0 1    1    3    0    0.000     0.000     0.000 
  6   1    9  1 0 2    61  16   100   64   64   0.00000  32.55849 7.67599e-004  4363  7585  -0.75   1.41  -4.83   -0.42   58.71    2.52  6.000  2.000 0 1 0 2  3.750  3.750 22.00   32.00  300.00    0.00   1   35.00    15    0    0    27  40.0 1    1    3    0    0.000     0.000     0.000 
  7   1    9  1 0 2    62  16   100   64   64   0.00000  32.55849 7.67599e-004  4817  8374  -0.75   1.41  -4.83    0.26   66.68    2.42  6.000  2.000 0 1 0 2  3.750  3.750 22.00   32.00  342.00    0.00   1   35.00    15    0    0    27  40.0 1    1    3    0    0.000     0.000     0.000 
  1   1   10  1 0 2    63  16   100   64   64   0.00000  32.55849 7.67599e-004   807  1403  -0.75   1.41  -4.83   -3.78   18.86    3.05  6.000  2.000 0 1 0 2  3.750  3.750 22.00   36.00   89.00    0.00   1   35.00    15    0    0    27  40.0 1    1    3    0    0.000     0.000     0.000 
  2   1   10  1 0 2    64  16   100   64   64   0.00000  32.55849 7.67599e-004  1563  2717  -0.75   1.41  -4.83   -3.11   26.83    2.94  6.000  2.000 0 1 0 2  3.750  3.750 22.00   36.00  131.00    0.00   1   35.00    15    0    0    27  40.0 1    1    3    0    0.000     0.000     0.000 
  3   1   10  1 0 2    65  16   100   64   64   0.00000  32.55849 7.67599e-004  2450  4259  -0.75   1.41  -4.83   -2.44   34.80    2.84  6.000  2.000 0 1 0 2  3.750  3.750 22.00   36.00  173.00    0.00   1   35.00    15    0    0    27  40.0 1    1    3    0    0.000     0.000     0.000 
  4   1   10  1 0 2    66  16   100   64   64   0.00000  32.55849 7.67599e-004  3318  5767  -0.75   1.41  -4.83   -1.76   42.77    2.73  6.000  2.000 0 1 0 2  3.750  3.750 22.00   36.00  215.00    0.00   1   35.00    15    0    0    27  40.0 1    1    3    0    0.000     0.000     0.000 
  5   1   10  1 0 2    67  16   100   64   64   0.00000  32.55849 7.67599e-004  4192  7286  -0.75   1.41  -4.83   -1.09   50.74    2.63  6.000  2.000 0 1 0 2  3.750  3.750 22.00   36.00  258.00    0.00   1   35.00    15    0    0    27  40.0 1    1    3    0    0.000     0.000     0.000 
  6   1   10  1 0 2    68  16   100   64   64   0.00000  32.55849 7.67599e-004  4214  7326  -0.75   1.41  -4.83   -0.42   58.71    2.52  6.000  2.000 0 1 0 2  3.750  3.750 22.00   36.00  300.00    0.00   1   35.00    15    0    0    27  40.0 1    1    3    0    0.000     0.000     0.000 
  7   1   10  1 0 2    69  16   100   64   64   0.00000  32.55849 7.67599e-004  4751  8258  -0.75   1.41  -4.83    0.26   66.68    2.42  6.000  2.000 0 1 0 2  3.750  3.750 22.00   36.00  342.00    0.00   1   35.00    15    0    0    27  40.0 1    1    3    0    0.000     0.000     0.000 
  1   1   11  1 0 2    70  16   100   64   64   0.00000  32.55849 7.67599e-004   926  1609  -0.75   1.41  -4.83   -3.78   18.86    3.05  6.000  2.000 0 1 0 2  3.750  3.750 22.00   40.00   89.00    0.00   1   35.00    15    0    0    27  40.0 1    1    3    0    0.000     0.000     0.000 
  2   1   11  1 0 2    71  16   100   64   64   0.00000  32.55849 7.67599e-004  1599  2779  -0.75   1.41  -4.83   -3.11   26.83    2.94  6.000  2.000 0 1 0 2  3.750  3.750 22.00   40.00  131.00    0.00   1   35.00    15    0    0    27  40.0 1    1    3    0    0.000     0.000     0.000 
  3   1   11  1 0 2    72  16   100   64   64   0.00000  32.55849 7.67599e-004  2467  4288  -0.75   1.41  -4.83   -2.44   34.80    2.84  6.000  2.000 0 1 0 2  3.750  3.750 22.00   40.00  173.00    0.00   1   35.00    15    0    0    27  40.0 1    1    3    0    0.000     0.000     0.000 
  4   1   11  1 0 2    73  16   100   64   64   0.00000  32.55849 7.67599e-004  3277  5696  -0.75   1.41  -4.83   -1.76   42.77    2.73  6.000  2.000 0 1 0 2  3.750  3.750 22.00   40.00  215.00    0.00   1   35.00    15    0    0    27  40.0 1    1    3    0    0.000     0.000     0.000 
  5   1   11  1 0 2    74  16   100   64   64   0.00000  32.55849 7.67599e-004  4285  7449  -0.75   1.41  -4.83   -1.09   50.74    2.63  6.000  2.000 0 1 0 2  3.750  3.750 22.00   40.00  258.00    0.00   1   35.00    15    0    0    27  40.0 1    1    3    0    0.000     0.000     0.000 
  6   1   11  1 0 2    75  16   100   64   64   0.00000  32.55849 7.67599e-004  4366  7590  -0.75   1.41  -4.83   -0.42   58.71    2.52  6.000  2.000 0 1 0 2  3.750  3.750 22.00   40.00  300.00    0.00   1   35.00    15    0    0    27  40.0 1    1    3    0    0.000     0.000     0.000 
  7   1   11  1 0 2    76  16   100   64   64   0.00000  32.55849 7.67599e-004  4975  8648  -0.75   1.41  -4.83    0.26   66.68    2.42  6.000  2.000 0 1 0 2  3.750  3.750 22.00   40.00  342.00    0.00   1   35.00    15    0    0    27  40.0 1    1    3    0    0.000     0.000     0.000 
  1   1   12  1 0 2    77  16   100   64   64   0.00000  32.55849 7.67599e-004   804  1397  -0.75   1.41  -4.83   -3.78   18.86    3.05  6.000  2.000 0 1 0 2  3.750  3.750 22.00   44.00   89.00    0.00   1   35.00    15    0    0    27  40.0 1    1    3    0    0.000     0.000     0.000 
  2   1   12  1 0 2    78  16   100   64   64   0.00000  32.55849 7.67599e-004  1584  2753  -0.75   1.41  -4.83   -3.11   26.83    2.94  6.000  2.000 0 1 0 2  3.750  3.750 22.00   44.00  131.00    0.00   1   35.00    15    0    0    27  40.0 1    1    3    0    0.000     0.000     0.000 
  3   1   12  1 0 2    79  16   100   64   64   0.00000  32.55849 7.67599e-004  2432  4228  -0.75   1.41  -4.83   -2.44   34.80    2.84  6.000  2.000 0 1 0 2  3.750  3.750 22.00   44.00  173.00    0.00   1   35.00    15    0    0    27  40.0 1    1    3    0    0.000     0.000     0.000 
  4   1   12  1 0 2    80  16   100   64   64   0.00000  32.55849 7.67599e-004  3370  5859  -0.75   1.41  -4.83   -1.76   42.77    2.73  6.000  2.000 0 1 0 2  3.750  3.750 22.00   44.00  215.00    0.00   1   35.00    15    0    0    27  40.0 1    1    3    0    0.000     0.000     0.000 
  5   1   12  1 0 2    81  16   100   64   64   0.00000  32.55849 7.67599e-004  4259  7403  -0.75   1.41  -4.83   -1.09   50.74    2.63  6.000  2.000 0 1 0 2  3.750  3.750 22.00   44.00  258.00    0.00   1   35.00    15    0    0    27  40.0 1    1    3    0    0.000     0.000     0.000 
  6   1   12  1 0 2    82  16   100   64   64   0.00000  32.55849 7.67599e-004  4228  7349  -0.75   1.41  -4.83   -0.42   58.71    2.52  6.000  2.000 0 1 0 2  3.750  3.750 22.00   44.00  300.00    0.00   1   35.00    15    0    0    27  40.0 1    1    3    0    0.000     0.000     0.000 
  7   1   12  1 0 2    83  16   100   64   64   0.00000  32.55849 7.67599e-004  5099  8864  -0.75   1.41  -4.83    0.26   66.68    2.42  6.000  2.000 0 1 0 2  3.750  3.750 22.00   44.00  342.00    0.00   1   35.00    15    0    0    27  40.0 1    1    3    0    0.000     0.000     0.000 
  1   1   13  1 0 2    84  16   100   64   64   0.00000  32.55849 7.67599e-004   387   672  -0.75   1.41  -4.83   -3.78   18.86    3.05  6.000  2.000 0 1 0 2  3.750  3.750 22.00   48.00   89.00    0.00   1   35.00    15    0    0    27  40.0 1    1    3    0    0.000     0.000     0.000 
